,times,values
7040000,1631768121.544,8345
7040001,1631768121.546,8345
7040002,1631768121.548,8345
7040003,1631768121.55,8344
7040004,1631768121.552,8344
7040005,1631768121.554,8343
7040006,1631768121.556,8343
7040007,1631768121.558,8342
7040008,1631768121.56,8340
7040009,1631768121.562,8338
7040010,1631768121.564,8335
7040011,1631768121.566,8332
7040012,1631768121.568,8328
7040013,1631768121.57,8324
7040014,1631768121.572,8320
7040015,1631768121.574,8316
7040016,1631768121.576,8312
7040017,1631768121.578,8307
7040018,1631768121.58,8302
7040019,1631768121.582,8297
7040020,1631768121.584,8292
7040021,1631768121.586,8286
7040022,1631768121.588,8279
7040023,1631768121.59,8272
7040024,1631768121.592,8265
7040025,1631768121.594,8257
7040026,1631768121.596,8249
7040027,1631768121.598,8241
7040028,1631768121.6,8233
7040029,1631768121.602,8225
7040030,1631768121.604,8217
7040031,1631768121.606,8209
7040032,1631768121.608,8202
7040033,1631768121.61,8194
7040034,1631768121.612,8187
7040035,1631768121.614,8180
7040036,1631768121.616,8174
7040037,1631768121.618,8168
7040038,1631768121.62,8163
7040039,1631768121.622,8159
7040040,1631768121.624,8155
7040041,1631768121.626,8151
7040042,1631768121.628,8148
7040043,1631768121.63,8145
7040044,1631768121.632,8143
7040045,1631768121.634,8141
7040046,1631768121.636,8140
7040047,1631768121.638,8139
7040048,1631768121.64,8138
7040049,1631768121.642,8137
7040050,1631768121.644,8137
7040051,1631768121.646,8136
7040052,1631768121.648,8136
7040053,1631768121.65,8136
7040054,1631768121.652,8136
7040055,1631768121.654,8137
7040056,1631768121.656,8137
7040057,1631768121.658,8137
7040058,1631768121.66,8137
7040059,1631768121.662,8137
7040060,1631768121.664,8137
7040061,1631768121.666,8138
7040062,1631768121.668,8138
7040063,1631768121.67,8139
7040064,1631768121.672,8139
7040065,1631768121.674,8140
7040066,1631768121.676,8140
7040067,1631768121.678,8140
7040068,1631768121.68,8140
7040069,1631768121.682,8140
7040070,1631768121.684,8139
7040071,1631768121.686,8139
7040072,1631768121.688,8139
7040073,1631768121.69,8139
7040074,1631768121.692,8138
7040075,1631768121.694,8138
7040076,1631768121.696,8138
7040077,1631768121.698,8141
7040078,1631768121.7,8146
7040079,1631768121.702,8150
7040080,1631768121.704,8154
7040081,1631768121.706,8158
7040082,1631768121.708,8163
7040083,1631768121.71,8168
7040084,1631768121.712,8172
7040085,1631768121.714,8175
7040086,1631768121.716,8177
7040087,1631768121.718,8179
7040088,1631768121.72,8180
7040089,1631768121.722,8178
7040090,1631768121.724,8176
7040091,1631768121.726,8172
7040092,1631768121.728,8169
7040093,1631768121.73,8167
7040094,1631768121.732,8165
7040095,1631768121.734,8161
7040096,1631768121.736,8156
7040097,1631768121.738,8151
7040098,1631768121.74,8145
7040099,1631768121.742,8140
7040100,1631768121.744,8136
7040101,1631768121.746,8134
7040102,1631768121.748,8133
7040103,1631768121.75,8133
7040104,1631768121.752,8134
7040105,1631768121.754,8134
7040106,1631768121.756,8135
7040107,1631768121.758,8136
7040108,1631768121.76,8136
7040109,1631768121.762,8137
7040110,1631768121.764,8137
7040111,1631768121.766,8137
7040112,1631768121.768,8138
7040113,1631768121.77,8138
7040114,1631768121.772,8138
7040115,1631768121.774,8138
7040116,1631768121.776,8138
7040117,1631768121.778,8137
7040118,1631768121.78,8138
7040119,1631768121.782,8138
7040120,1631768121.784,8138
7040121,1631768121.786,8138
7040122,1631768121.788,8138
7040123,1631768121.79,8137
7040124,1631768121.792,8132
7040125,1631768121.794,8121
7040126,1631768121.796,8103
7040127,1631768121.798,8080
7040128,1631768121.8,8059
7040129,1631768121.802,8046
7040130,1631768121.804,8045
7040131,1631768121.806,8051
7040132,1631768121.808,8060
7040133,1631768121.81,8069
7040134,1631768121.812,8084
7040135,1631768121.814,8113
7040136,1631768121.816,8156
7040137,1631768121.818,8201
7040138,1631768121.82,8230
7040139,1631768121.822,8237
7040140,1631768121.824,8221
7040141,1631768121.826,8189
7040142,1631768121.828,8149
7040143,1631768121.83,8105
7040144,1631768121.832,8064
7040145,1631768121.834,8029
7040146,1631768121.836,8004
7040147,1631768121.838,7989
7040148,1631768121.84,7980
7040149,1631768121.842,7972
7040150,1631768121.844,7960
7040151,1631768121.846,7943
7040152,1631768121.848,7925
7040153,1631768121.85,7908
7040154,1631768121.852,7896
7040155,1631768121.854,7889
7040156,1631768121.856,7887
7040157,1631768121.858,7887
7040158,1631768121.86,7886
7040159,1631768121.862,7881
7040160,1631768121.864,7872
7040161,1631768121.866,7862
7040162,1631768121.868,7856
7040163,1631768121.87,7854
7040164,1631768121.872,7856
7040165,1631768121.874,7856
7040166,1631768121.876,7852
7040167,1631768121.878,7849
7040168,1631768121.88,7850
7040169,1631768121.882,7855
7040170,1631768121.884,7864
7040171,1631768121.886,7883
7040172,1631768121.888,7913
7040173,1631768121.89,7946
7040174,1631768121.892,7978
7040175,1631768121.894,8014
7040176,1631768121.896,8061
7040177,1631768121.898,8115
7040178,1631768121.9,8164
7040179,1631768121.902,8201
7040180,1631768121.904,8226
7040181,1631768121.906,8243
7040182,1631768121.908,8254
7040183,1631768121.91,8259
7040184,1631768121.912,8259
7040185,1631768121.914,8256
7040186,1631768121.916,8252
7040187,1631768121.918,8248
7040188,1631768121.92,8245
7040189,1631768121.922,8243
7040190,1631768121.924,8242
7040191,1631768121.926,8242
7040192,1631768121.928,8241
7040193,1631768121.93,8241
7040194,1631768121.932,8240
7040195,1631768121.934,8238
7040196,1631768121.936,8237
7040197,1631768121.938,8237
7040198,1631768121.94,8236
7040199,1631768121.942,8235
7040200,1631768121.944,8234
7040201,1631768121.946,8233
7040202,1631768121.948,8232
7040203,1631768121.95,8231
7040204,1631768121.952,8230
7040205,1631768121.954,8228
7040206,1631768121.956,8227
7040207,1631768121.958,8224
7040208,1631768121.96,8222
7040209,1631768121.962,8220
7040210,1631768121.964,8217
7040211,1631768121.966,8214
7040212,1631768121.968,8211
7040213,1631768121.97,8207
7040214,1631768121.972,8203
7040215,1631768121.974,8199
7040216,1631768121.976,8194
7040217,1631768121.978,8188
7040218,1631768121.98,8182
7040219,1631768121.982,8176
7040220,1631768121.984,8170
7040221,1631768121.986,8164
7040222,1631768121.988,8159
7040223,1631768121.99,8155
7040224,1631768121.992,8150
7040225,1631768121.994,8147
7040226,1631768121.996,8144
7040227,1631768121.998,8141
7040228,1631768122.0,8139
7040229,1631768122.002,8138
7040230,1631768122.004,8137
7040231,1631768122.006,8136
7040232,1631768122.008,8135
7040233,1631768122.01,8136
7040234,1631768122.012,8137
7040235,1631768122.014,8138
7040236,1631768122.016,8139
7040237,1631768122.018,8141
7040238,1631768122.02,8142
7040239,1631768122.022,8144
7040240,1631768122.024,8146
7040241,1631768122.026,8148
7040242,1631768122.028,8151
7040243,1631768122.03,8153
7040244,1631768122.032,8156
7040245,1631768122.034,8158
7040246,1631768122.036,8161
7040247,1631768122.038,8163
7040248,1631768122.04,8166
7040249,1631768122.042,8168
7040250,1631768122.044,8171
7040251,1631768122.046,8174
7040252,1631768122.048,8176
7040253,1631768122.05,8178
7040254,1631768122.052,8180
7040255,1631768122.054,8181
7040256,1631768122.056,8183
7040257,1631768122.058,8184
7040258,1631768122.06,8185
7040259,1631768122.062,8185
7040260,1631768122.064,8185
7040261,1631768122.066,8184
7040262,1631768122.068,8183
7040263,1631768122.07,8181
7040264,1631768122.072,8179
7040265,1631768122.074,8176
7040266,1631768122.076,8174
7040267,1631768122.078,8171
7040268,1631768122.08,8169
7040269,1631768122.082,8166
7040270,1631768122.084,8162
7040271,1631768122.086,8159
7040272,1631768122.088,8155
7040273,1631768122.09,8151
7040274,1631768122.092,8146
7040275,1631768122.094,8141
7040276,1631768122.096,8136
7040277,1631768122.098,8130
7040278,1631768122.1,8123
7040279,1631768122.102,8118
7040280,1631768122.104,8112
7040281,1631768122.106,8106
7040282,1631768122.108,8100
7040283,1631768122.11,8094
7040284,1631768122.112,8088
7040285,1631768122.114,8083
7040286,1631768122.116,8079
7040287,1631768122.118,8074
7040288,1631768122.12,8070
7040289,1631768122.122,8066
7040290,1631768122.124,8063
7040291,1631768122.126,8061
7040292,1631768122.128,8058
7040293,1631768122.13,8057
7040294,1631768122.132,8055
7040295,1631768122.134,8055
7040296,1631768122.136,8054
7040297,1631768122.138,8054
7040298,1631768122.14,8053
7040299,1631768122.142,8053
7040300,1631768122.144,8054
7040301,1631768122.146,8055
7040302,1631768122.148,8056
7040303,1631768122.15,8057
7040304,1631768122.152,8058
7040305,1631768122.154,8059
7040306,1631768122.156,8060
7040307,1631768122.158,8061
7040308,1631768122.16,8062
7040309,1631768122.162,8063
7040310,1631768122.164,8064
7040311,1631768122.166,8066
7040312,1631768122.168,8067
7040313,1631768122.17,8068
7040314,1631768122.172,8069
7040315,1631768122.174,8070
7040316,1631768122.176,8071
7040317,1631768122.178,8073
7040318,1631768122.18,8074
7040319,1631768122.182,8075
7040320,1631768122.184,8076
7040321,1631768122.186,8078
7040322,1631768122.188,8079
7040323,1631768122.19,8080
7040324,1631768122.192,8081
7040325,1631768122.194,8083
7040326,1631768122.196,8084
7040327,1631768122.198,8085
7040328,1631768122.2,8086
7040329,1631768122.202,8087
7040330,1631768122.204,8088
7040331,1631768122.206,8089
7040332,1631768122.208,8089
7040333,1631768122.21,8090
7040334,1631768122.212,8090
7040335,1631768122.214,8091
7040336,1631768122.216,8091
7040337,1631768122.218,8092
7040338,1631768122.22,8092
7040339,1631768122.222,8091
7040340,1631768122.224,8089
7040341,1631768122.226,8087
7040342,1631768122.228,8085
7040343,1631768122.23,8085
7040344,1631768122.232,8087
7040345,1631768122.234,8092
7040346,1631768122.236,8099
7040347,1631768122.238,8106
7040348,1631768122.24,8114
7040349,1631768122.242,8123
7040350,1631768122.244,8130
7040351,1631768122.246,8134
7040352,1631768122.248,8135
7040353,1631768122.25,8134
7040354,1631768122.252,8131
7040355,1631768122.254,8128
7040356,1631768122.256,8124
7040357,1631768122.258,8121
7040358,1631768122.26,8120
7040359,1631768122.262,8120
7040360,1631768122.264,8120
7040361,1631768122.266,8119
7040362,1631768122.268,8117
7040363,1631768122.27,8113
7040364,1631768122.272,8109
7040365,1631768122.274,8104
7040366,1631768122.276,8101
7040367,1631768122.278,8100
7040368,1631768122.28,8100
7040369,1631768122.282,8102
7040370,1631768122.284,8103
7040371,1631768122.286,8105
7040372,1631768122.288,8106
7040373,1631768122.29,8107
7040374,1631768122.292,8108
7040375,1631768122.294,8109
7040376,1631768122.296,8110
7040377,1631768122.298,8111
7040378,1631768122.3,8112
7040379,1631768122.302,8112
7040380,1631768122.304,8113
7040381,1631768122.306,8114
7040382,1631768122.308,8114
7040383,1631768122.31,8115
7040384,1631768122.312,8116
7040385,1631768122.314,8116
7040386,1631768122.316,8117
7040387,1631768122.318,8117
7040388,1631768122.32,8118
7040389,1631768122.322,8118
7040390,1631768122.324,8117
7040391,1631768122.326,8112
7040392,1631768122.328,8100
7040393,1631768122.33,8080
7040394,1631768122.332,8056
7040395,1631768122.334,8036
7040396,1631768122.336,8027
7040397,1631768122.338,8030
7040398,1631768122.34,8039
7040399,1631768122.342,8047
7040400,1631768122.344,8056
7040401,1631768122.346,8072
7040402,1631768122.348,8102
7040403,1631768122.35,8148
7040404,1631768122.352,8193
7040405,1631768122.354,8221
7040406,1631768122.356,8221
7040407,1631768122.358,8200
7040408,1631768122.36,8167
7040409,1631768122.362,8131
7040410,1631768122.364,8092
7040411,1631768122.366,8053
7040412,1631768122.368,8019
7040413,1631768122.37,7992
7040414,1631768122.372,7974
7040415,1631768122.374,7960
7040416,1631768122.376,7947
7040417,1631768122.378,7930
7040418,1631768122.38,7912
7040419,1631768122.382,7896
7040420,1631768122.384,7883
7040421,1631768122.386,7877
7040422,1631768122.388,7875
7040423,1631768122.39,7876
7040424,1631768122.392,7877
7040425,1631768122.394,7875
7040426,1631768122.396,7868
7040427,1631768122.398,7860
7040428,1631768122.4,7855
7040429,1631768122.402,7855
7040430,1631768122.404,7859
7040431,1631768122.406,7862
7040432,1631768122.408,7861
7040433,1631768122.41,7857
7040434,1631768122.412,7855
7040435,1631768122.414,7858
7040436,1631768122.416,7865
7040437,1631768122.418,7880
7040438,1631768122.42,7907
7040439,1631768122.422,7939
7040440,1631768122.424,7973
7040441,1631768122.426,8009
7040442,1631768122.428,8051
7040443,1631768122.43,8100
7040444,1631768122.432,8150
7040445,1631768122.434,8189
7040446,1631768122.436,8217
7040447,1631768122.438,8237
7040448,1631768122.44,8251
7040449,1631768122.442,8259
7040450,1631768122.444,8262
7040451,1631768122.446,8260
7040452,1631768122.448,8256
7040453,1631768122.45,8253
7040454,1631768122.452,8251
7040455,1631768122.454,8250
7040456,1631768122.456,8249
7040457,1631768122.458,8249
7040458,1631768122.46,8249
7040459,1631768122.462,8249
7040460,1631768122.464,8249
7040461,1631768122.466,8250
7040462,1631768122.468,8250
7040463,1631768122.47,8250
7040464,1631768122.472,8250
7040465,1631768122.474,8250
7040466,1631768122.476,8250
7040467,1631768122.478,8251
7040468,1631768122.48,8251
7040469,1631768122.482,8252
7040470,1631768122.484,8252
7040471,1631768122.486,8253
7040472,1631768122.488,8253
7040473,1631768122.49,8254
7040474,1631768122.492,8255
7040475,1631768122.494,8255
7040476,1631768122.496,8256
7040477,1631768122.498,8256
7040478,1631768122.5,8257
7040479,1631768122.502,8258
7040480,1631768122.504,8259
7040481,1631768122.506,8261
7040482,1631768122.508,8262
7040483,1631768122.51,8263
7040484,1631768122.512,8264
7040485,1631768122.514,8265
7040486,1631768122.516,8267
7040487,1631768122.518,8268
7040488,1631768122.52,8270
7040489,1631768122.522,8272
7040490,1631768122.524,8273
7040491,1631768122.526,8274
7040492,1631768122.528,8275
7040493,1631768122.53,8276
7040494,1631768122.532,8278
7040495,1631768122.534,8280
7040496,1631768122.536,8282
7040497,1631768122.538,8284
7040498,1631768122.54,8285
7040499,1631768122.542,8287
7040500,1631768122.544,8288
7040501,1631768122.546,8290
7040502,1631768122.548,8292
7040503,1631768122.55,8295
7040504,1631768122.552,8296
7040505,1631768122.554,8298
7040506,1631768122.556,8300
7040507,1631768122.558,8301
7040508,1631768122.56,8303
7040509,1631768122.562,8305
7040510,1631768122.564,8307
7040511,1631768122.566,8309
7040512,1631768122.568,8311
7040513,1631768122.57,8312
7040514,1631768122.572,8314
7040515,1631768122.574,8315
7040516,1631768122.576,8317
7040517,1631768122.578,8318
7040518,1631768122.58,8319
7040519,1631768122.582,8320
7040520,1631768122.584,8322
7040521,1631768122.586,8322
7040522,1631768122.588,8322
7040523,1631768122.59,8322
7040524,1631768122.592,8321
7040525,1631768122.594,8321
7040526,1631768122.596,8320
7040527,1631768122.598,8318
7040528,1631768122.6,8316
7040529,1631768122.602,8313
7040530,1631768122.604,8310
7040531,1631768122.606,8306
7040532,1631768122.608,8302
7040533,1631768122.61,8298
7040534,1631768122.612,8294
7040535,1631768122.614,8289
7040536,1631768122.616,8283
7040537,1631768122.618,8277
7040538,1631768122.62,8271
7040539,1631768122.622,8265
7040540,1631768122.624,8259
7040541,1631768122.626,8253
7040542,1631768122.628,8246
7040543,1631768122.63,8239
7040544,1631768122.632,8231
7040545,1631768122.634,8223
7040546,1631768122.636,8214
7040547,1631768122.638,8205
7040548,1631768122.64,8197
7040549,1631768122.642,8188
7040550,1631768122.644,8180
7040551,1631768122.646,8173
7040552,1631768122.648,8165
7040553,1631768122.65,8158
7040554,1631768122.652,8151
7040555,1631768122.654,8146
7040556,1631768122.656,8140
7040557,1631768122.658,8135
7040558,1631768122.66,8130
7040559,1631768122.662,8125
7040560,1631768122.664,8122
7040561,1631768122.666,8119
7040562,1631768122.668,8117
7040563,1631768122.67,8114
7040564,1631768122.672,8111
7040565,1631768122.674,8109
7040566,1631768122.676,8106
7040567,1631768122.678,8104
7040568,1631768122.68,8104
7040569,1631768122.682,8104
7040570,1631768122.684,8104
7040571,1631768122.686,8103
7040572,1631768122.688,8103
7040573,1631768122.69,8104
7040574,1631768122.692,8104
7040575,1631768122.694,8103
7040576,1631768122.696,8103
7040577,1631768122.698,8103
7040578,1631768122.7,8103
7040579,1631768122.702,8103
7040580,1631768122.704,8102
7040581,1631768122.706,8102
7040582,1631768122.708,8102
7040583,1631768122.71,8103
7040584,1631768122.712,8104
7040585,1631768122.714,8104
7040586,1631768122.716,8105
7040587,1631768122.718,8106
7040588,1631768122.72,8107
7040589,1631768122.722,8108
7040590,1631768122.724,8108
7040591,1631768122.726,8107
7040592,1631768122.728,8105
7040593,1631768122.73,8103
7040594,1631768122.732,8100
7040595,1631768122.734,8099
7040596,1631768122.736,8101
7040597,1631768122.738,8105
7040598,1631768122.74,8110
7040599,1631768122.742,8115
7040600,1631768122.744,8119
7040601,1631768122.746,8124
7040602,1631768122.748,8128
7040603,1631768122.75,8132
7040604,1631768122.752,8136
7040605,1631768122.754,8139
7040606,1631768122.756,8141
7040607,1631768122.758,8142
7040608,1631768122.76,8143
7040609,1631768122.762,8142
7040610,1631768122.764,8140
7040611,1631768122.766,8137
7040612,1631768122.768,8134
7040613,1631768122.77,8131
7040614,1631768122.772,8129
7040615,1631768122.774,8126
7040616,1631768122.776,8121
7040617,1631768122.778,8117
7040618,1631768122.78,8111
7040619,1631768122.782,8107
7040620,1631768122.784,8104
7040621,1631768122.786,8103
7040622,1631768122.788,8102
7040623,1631768122.79,8102
7040624,1631768122.792,8101
7040625,1631768122.794,8101
7040626,1631768122.796,8101
7040627,1631768122.798,8101
7040628,1631768122.8,8103
7040629,1631768122.802,8104
7040630,1631768122.804,8105
7040631,1631768122.806,8107
7040632,1631768122.808,8109
7040633,1631768122.81,8110
7040634,1631768122.812,8111
7040635,1631768122.814,8111
7040636,1631768122.816,8111
7040637,1631768122.818,8111
7040638,1631768122.82,8111
7040639,1631768122.822,8111
7040640,1631768122.824,8112
7040641,1631768122.826,8113
7040642,1631768122.828,8114
7040643,1631768122.83,8114
7040644,1631768122.832,8111
7040645,1631768122.834,8100
7040646,1631768122.836,8080
7040647,1631768122.838,8056
7040648,1631768122.84,8035
7040649,1631768122.842,8023
7040650,1631768122.844,8022
7040651,1631768122.846,8029
7040652,1631768122.848,8039
7040653,1631768122.85,8048
7040654,1631768122.852,8063
7040655,1631768122.854,8091
7040656,1631768122.856,8133
7040657,1631768122.858,8175
7040658,1631768122.86,8199
7040659,1631768122.862,8202
7040660,1631768122.864,8184
7040661,1631768122.866,8151
7040662,1631768122.868,8111
7040663,1631768122.87,8068
7040664,1631768122.872,8028
7040665,1631768122.874,7995
7040666,1631768122.876,7971
7040667,1631768122.878,7958
7040668,1631768122.88,7951
7040669,1631768122.882,7944
7040670,1631768122.884,7934
7040671,1631768122.886,7919
7040672,1631768122.888,7902
7040673,1631768122.89,7886
7040674,1631768122.892,7873
7040675,1631768122.894,7867
7040676,1631768122.896,7865
7040677,1631768122.898,7867
7040678,1631768122.9,7867
7040679,1631768122.902,7863
7040680,1631768122.904,7853
7040681,1631768122.906,7844
7040682,1631768122.908,7839
7040683,1631768122.91,7839
7040684,1631768122.912,7841
7040685,1631768122.914,7841
7040686,1631768122.916,7836
7040687,1631768122.918,7829
7040688,1631768122.92,7826
7040689,1631768122.922,7830
7040690,1631768122.924,7842
7040691,1631768122.926,7865
7040692,1631768122.928,7896
7040693,1631768122.93,7930
7040694,1631768122.932,7965
7040695,1631768122.934,8008
7040696,1631768122.936,8062
7040697,1631768122.938,8123
7040698,1631768122.94,8177
7040699,1631768122.942,8215
7040700,1631768122.944,8241
7040701,1631768122.946,8259
7040702,1631768122.948,8270
7040703,1631768122.95,8275
7040704,1631768122.952,8274
7040705,1631768122.954,8270
7040706,1631768122.956,8267
7040707,1631768122.958,8264
7040708,1631768122.96,8262
7040709,1631768122.962,8261
7040710,1631768122.964,8260
7040711,1631768122.966,8260
7040712,1631768122.968,8260
7040713,1631768122.97,8260
7040714,1631768122.972,8260
7040715,1631768122.974,8261
7040716,1631768122.976,8261
7040717,1631768122.978,8261
7040718,1631768122.98,8261
7040719,1631768122.982,8261
7040720,1631768122.984,8261
7040721,1631768122.986,8262
7040722,1631768122.988,8263
7040723,1631768122.99,8264
7040724,1631768122.992,8265
7040725,1631768122.994,8266
7040726,1631768122.996,8267
7040727,1631768122.998,8268
7040728,1631768123.0,8268
7040729,1631768123.002,8269
7040730,1631768123.004,8271
7040731,1631768123.006,8272
7040732,1631768123.008,8273
7040733,1631768123.01,8274
7040734,1631768123.012,8276
7040735,1631768123.014,8277
7040736,1631768123.016,8279
7040737,1631768123.018,8280
7040738,1631768123.02,8282
7040739,1631768123.022,8284
7040740,1631768123.024,8286
7040741,1631768123.026,8288
7040742,1631768123.028,8289
7040743,1631768123.03,8292
7040744,1631768123.032,8294
7040745,1631768123.034,8296
7040746,1631768123.036,8297
7040747,1631768123.038,8299
7040748,1631768123.04,8301
7040749,1631768123.042,8303
7040750,1631768123.044,8305
7040751,1631768123.046,8307
7040752,1631768123.048,8309
7040753,1631768123.05,8312
7040754,1631768123.052,8314
7040755,1631768123.054,8316
7040756,1631768123.056,8317
7040757,1631768123.058,8319
7040758,1631768123.06,8321
7040759,1631768123.062,8324
7040760,1631768123.064,8325
7040761,1631768123.066,8327
7040762,1631768123.068,8329
7040763,1631768123.07,8332
7040764,1631768123.072,8334
7040765,1631768123.074,8337
7040766,1631768123.076,8339
7040767,1631768123.078,8342
7040768,1631768123.08,8343
7040769,1631768123.082,8345
7040770,1631768123.084,8346
7040771,1631768123.086,8348
7040772,1631768123.088,8349
7040773,1631768123.09,8350
7040774,1631768123.092,8351
7040775,1631768123.094,8351
7040776,1631768123.096,8352
7040777,1631768123.098,8352
7040778,1631768123.1,8351
7040779,1631768123.102,8350
7040780,1631768123.104,8348
7040781,1631768123.106,8346
7040782,1631768123.108,8343
7040783,1631768123.11,8340
7040784,1631768123.112,8337
7040785,1631768123.114,8333
7040786,1631768123.116,8330
7040787,1631768123.118,8326
7040788,1631768123.12,8322
7040789,1631768123.122,8317
7040790,1631768123.124,8312
7040791,1631768123.126,8307
7040792,1631768123.128,8302
7040793,1631768123.13,8297
7040794,1631768123.132,8292
7040795,1631768123.134,8285
7040796,1631768123.136,8279
7040797,1631768123.138,8272
7040798,1631768123.14,8265
7040799,1631768123.142,8257
7040800,1631768123.144,8250
7040801,1631768123.146,8242
7040802,1631768123.148,8235
7040803,1631768123.15,8229
7040804,1631768123.152,8222
7040805,1631768123.154,8215
7040806,1631768123.156,8208
7040807,1631768123.158,8202
7040808,1631768123.16,8197
7040809,1631768123.162,8191
7040810,1631768123.164,8186
7040811,1631768123.166,8182
7040812,1631768123.168,8179
7040813,1631768123.17,8176
7040814,1631768123.172,8173
7040815,1631768123.174,8171
7040816,1631768123.176,8170
7040817,1631768123.178,8169
7040818,1631768123.18,8168
7040819,1631768123.182,8166
7040820,1631768123.184,8165
7040821,1631768123.186,8165
7040822,1631768123.188,8165
7040823,1631768123.19,8165
7040824,1631768123.192,8165
7040825,1631768123.194,8165
7040826,1631768123.196,8166
7040827,1631768123.198,8166
7040828,1631768123.2,8167
7040829,1631768123.202,8168
7040830,1631768123.204,8168
7040831,1631768123.206,8169
7040832,1631768123.208,8169
7040833,1631768123.21,8169
7040834,1631768123.212,8169
7040835,1631768123.214,8170
7040836,1631768123.216,8171
7040837,1631768123.218,8173
7040838,1631768123.22,8173
7040839,1631768123.222,8174
7040840,1631768123.224,8174
7040841,1631768123.226,8175
7040842,1631768123.228,8176
7040843,1631768123.23,8176
7040844,1631768123.232,8177
7040845,1631768123.234,8177
7040846,1631768123.236,8178
7040847,1631768123.238,8178
7040848,1631768123.24,8178
7040849,1631768123.242,8178
7040850,1631768123.244,8178
7040851,1631768123.246,8178
7040852,1631768123.248,8178
7040853,1631768123.25,8177
7040854,1631768123.252,8176
7040855,1631768123.254,8175
7040856,1631768123.256,8174
7040857,1631768123.258,8175
7040858,1631768123.26,8178
7040859,1631768123.262,8182
7040860,1631768123.264,8186
7040861,1631768123.266,8190
7040862,1631768123.268,8195
7040863,1631768123.27,8200
7040864,1631768123.272,8205
7040865,1631768123.274,8209
7040866,1631768123.276,8211
7040867,1631768123.278,8213
7040868,1631768123.28,8213
7040869,1631768123.282,8213
7040870,1631768123.284,8212
7040871,1631768123.286,8209
7040872,1631768123.288,8206
7040873,1631768123.29,8203
7040874,1631768123.292,8200
7040875,1631768123.294,8197
7040876,1631768123.296,8193
7040877,1631768123.298,8187
7040878,1631768123.3,8181
7040879,1631768123.302,8176
7040880,1631768123.304,8171
7040881,1631768123.306,8167
7040882,1631768123.308,8165
7040883,1631768123.31,8164
7040884,1631768123.312,8164
7040885,1631768123.314,8165
7040886,1631768123.316,8165
7040887,1631768123.318,8166
7040888,1631768123.32,8167
7040889,1631768123.322,8168
7040890,1631768123.324,8168
7040891,1631768123.326,8168
7040892,1631768123.328,8168
7040893,1631768123.33,8169
7040894,1631768123.332,8169
7040895,1631768123.334,8169
7040896,1631768123.336,8169
7040897,1631768123.338,8170
7040898,1631768123.34,8170
7040899,1631768123.342,8170
7040900,1631768123.344,8170
7040901,1631768123.346,8170
7040902,1631768123.348,8170
7040903,1631768123.35,8169
7040904,1631768123.352,8168
7040905,1631768123.354,8162
7040906,1631768123.356,8149
7040907,1631768123.358,8128
7040908,1631768123.36,8103
7040909,1631768123.362,8083
7040910,1631768123.364,8073
7040911,1631768123.366,8074
7040912,1631768123.368,8082
7040913,1631768123.37,8091
7040914,1631768123.372,8100
7040915,1631768123.374,8116
7040916,1631768123.376,8146
7040917,1631768123.378,8191
7040918,1631768123.38,8236
7040919,1631768123.382,8262
7040920,1631768123.384,8262
7040921,1631768123.386,8242
7040922,1631768123.388,8211
7040923,1631768123.39,8174
7040924,1631768123.392,8134
7040925,1631768123.394,8095
7040926,1631768123.396,8060
7040927,1631768123.398,8033
7040928,1631768123.4,8014
7040929,1631768123.402,8001
7040930,1631768123.404,7988
7040931,1631768123.406,7973
7040932,1631768123.408,7956
7040933,1631768123.41,7939
7040934,1631768123.412,7925
7040935,1631768123.414,7917
7040936,1631768123.416,7914
7040937,1631768123.418,7915
7040938,1631768123.42,7916
7040939,1631768123.422,7915
7040940,1631768123.424,7908
7040941,1631768123.426,7899
7040942,1631768123.428,7893
7040943,1631768123.43,7892
7040944,1631768123.432,7896
7040945,1631768123.434,7899
7040946,1631768123.436,7898
7040947,1631768123.438,7893
7040948,1631768123.44,7892
7040949,1631768123.442,7895
7040950,1631768123.444,7903
7040951,1631768123.446,7919
7040952,1631768123.448,7945
7040953,1631768123.45,7977
7040954,1631768123.452,8009
7040955,1631768123.454,8043
7040956,1631768123.456,8086
7040957,1631768123.458,8139
7040958,1631768123.46,8191
7040959,1631768123.462,8232
7040960,1631768123.464,8260
7040961,1631768123.466,8280
7040962,1631768123.468,8294
7040963,1631768123.47,8302
7040964,1631768123.472,8304
7040965,1631768123.474,8302
7040966,1631768123.476,8298
7040967,1631768123.478,8294
7040968,1631768123.48,8291
7040969,1631768123.482,8289
7040970,1631768123.484,8289
7040971,1631768123.486,8289
7040972,1631768123.488,8288
7040973,1631768123.49,8288
7040974,1631768123.492,8287
7040975,1631768123.494,8287
7040976,1631768123.496,8287
7040977,1631768123.498,8287
7040978,1631768123.5,8286
7040979,1631768123.502,8287
7040980,1631768123.504,8287
7040981,1631768123.506,8287
7040982,1631768123.508,8288
7040983,1631768123.51,8289
7040984,1631768123.512,8289
7040985,1631768123.514,8290
7040986,1631768123.516,8290
7040987,1631768123.518,8290
7040988,1631768123.52,8291
7040989,1631768123.522,8291
7040990,1631768123.524,8292
7040991,1631768123.526,8292
7040992,1631768123.528,8293
7040993,1631768123.53,8294
7040994,1631768123.532,8296
7040995,1631768123.534,8297
7040996,1631768123.536,8298
7040997,1631768123.538,8299
7040998,1631768123.54,8299
7040999,1631768123.542,8300
7041000,1631768123.544,8300
7041001,1631768123.546,8302
7041002,1631768123.548,8303
7041003,1631768123.55,8304
7041004,1631768123.552,8306
7041005,1631768123.554,8307
7041006,1631768123.556,8308
7041007,1631768123.558,8310
7041008,1631768123.56,8311
7041009,1631768123.562,8313
7041010,1631768123.564,8315
7041011,1631768123.566,8317
7041012,1631768123.568,8319
7041013,1631768123.57,8320
7041014,1631768123.572,8322
7041015,1631768123.574,8324
7041016,1631768123.576,8326
7041017,1631768123.578,8328
7041018,1631768123.58,8330
7041019,1631768123.582,8332
7041020,1631768123.584,8334
7041021,1631768123.586,8335
7041022,1631768123.588,8338
7041023,1631768123.59,8340
7041024,1631768123.592,8342
7041025,1631768123.594,8344
7041026,1631768123.596,8346
7041027,1631768123.598,8348
7041028,1631768123.6,8349
7041029,1631768123.602,8351
7041030,1631768123.604,8353
7041031,1631768123.606,8354
7041032,1631768123.608,8356
7041033,1631768123.61,8357
7041034,1631768123.612,8358
7041035,1631768123.614,8360
7041036,1631768123.616,8360
7041037,1631768123.618,8361
7041038,1631768123.62,8361
7041039,1631768123.622,8360
7041040,1631768123.624,8359
7041041,1631768123.626,8357
7041042,1631768123.628,8356
7041043,1631768123.63,8353
7041044,1631768123.632,8351
7041045,1631768123.634,8348
7041046,1631768123.636,8345
7041047,1631768123.638,8341
7041048,1631768123.64,8337
7041049,1631768123.642,8333
7041050,1631768123.644,8328
7041051,1631768123.646,8323
7041052,1631768123.648,8318
7041053,1631768123.65,8313
7041054,1631768123.652,8308
7041055,1631768123.654,8302
7041056,1631768123.656,8296
7041057,1631768123.658,8289
7041058,1631768123.66,8282
7041059,1631768123.662,8275
7041060,1631768123.664,8267
7041061,1631768123.666,8260
7041062,1631768123.668,8252
7041063,1631768123.67,8246
7041064,1631768123.672,8239
7041065,1631768123.674,8231
7041066,1631768123.676,8224
7041067,1631768123.678,8218
7041068,1631768123.68,8211
7041069,1631768123.682,8206
7041070,1631768123.684,8201
7041071,1631768123.686,8197
7041072,1631768123.688,8193
7041073,1631768123.69,8190
7041074,1631768123.692,8187
7041075,1631768123.694,8185
7041076,1631768123.696,8182
7041077,1631768123.698,8180
7041078,1631768123.7,8178
7041079,1631768123.702,8177
7041080,1631768123.704,8176
7041081,1631768123.706,8175
7041082,1631768123.708,8174
7041083,1631768123.71,8174
7041084,1631768123.712,8173
7041085,1631768123.714,8173
7041086,1631768123.716,8173
7041087,1631768123.718,8173
7041088,1631768123.72,8173
7041089,1631768123.722,8173
7041090,1631768123.724,8173
7041091,1631768123.726,8173
7041092,1631768123.728,8173
7041093,1631768123.73,8173
7041094,1631768123.732,8174
7041095,1631768123.734,8174
7041096,1631768123.736,8174
7041097,1631768123.738,8174
7041098,1631768123.74,8175
7041099,1631768123.742,8175
7041100,1631768123.744,8176
7041101,1631768123.746,8176
7041102,1631768123.748,8177
7041103,1631768123.75,8177
7041104,1631768123.752,8177
7041105,1631768123.754,8178
7041106,1631768123.756,8178
7041107,1631768123.758,8178
7041108,1631768123.76,8178
7041109,1631768123.762,8178
7041110,1631768123.764,8178
7041111,1631768123.766,8178
7041112,1631768123.768,8178
7041113,1631768123.77,8178
7041114,1631768123.772,8177
7041115,1631768123.774,8177
7041116,1631768123.776,8177
7041117,1631768123.778,8177
7041118,1631768123.78,8176
7041119,1631768123.782,8173
7041120,1631768123.784,8170
7041121,1631768123.786,8167
7041122,1631768123.788,8166
7041123,1631768123.79,8168
7041124,1631768123.792,8172
7041125,1631768123.794,8178
7041126,1631768123.796,8183
7041127,1631768123.798,8190
7041128,1631768123.8,8197
7041129,1631768123.802,8204
7041130,1631768123.804,8208
7041131,1631768123.806,8210
7041132,1631768123.808,8208
7041133,1631768123.81,8205
7041134,1631768123.812,8201
7041135,1631768123.814,8196
7041136,1631768123.816,8192
7041137,1631768123.818,8190
7041138,1631768123.82,8190
7041139,1631768123.822,8190
7041140,1631768123.824,8189
7041141,1631768123.826,8186
7041142,1631768123.828,8182
7041143,1631768123.83,8177
7041144,1631768123.832,8172
7041145,1631768123.834,8168
7041146,1631768123.836,8165
7041147,1631768123.838,8165
7041148,1631768123.84,8167
7041149,1631768123.842,8169
7041150,1631768123.844,8170
7041151,1631768123.846,8171
7041152,1631768123.848,8170
7041153,1631768123.85,8170
7041154,1631768123.852,8170
7041155,1631768123.854,8170
7041156,1631768123.856,8170
7041157,1631768123.858,8171
7041158,1631768123.86,8171
7041159,1631768123.862,8171
7041160,1631768123.864,8172
7041161,1631768123.866,8172
7041162,1631768123.868,8172
7041163,1631768123.87,8173
7041164,1631768123.872,8173
7041165,1631768123.874,8173
7041166,1631768123.876,8173
7041167,1631768123.878,8173
7041168,1631768123.88,8172
7041169,1631768123.882,8170
7041170,1631768123.884,8165
7041171,1631768123.886,8154
7041172,1631768123.888,8136
7041173,1631768123.89,8112
7041174,1631768123.892,8091
7041175,1631768123.894,8080
7041176,1631768123.896,8080
7041177,1631768123.898,8088
7041178,1631768123.9,8096
7041179,1631768123.902,8105
7041180,1631768123.904,8122
7041181,1631768123.906,8152
7041182,1631768123.908,8195
7041183,1631768123.91,8239
7041184,1631768123.912,8267
7041185,1631768123.914,8270
7041186,1631768123.916,8250
7041187,1631768123.918,8217
7041188,1631768123.92,8178
7041189,1631768123.922,8136
7041190,1631768123.924,8096
7041191,1631768123.926,8063
7041192,1631768123.928,8037
7041193,1631768123.93,8021
7041194,1631768123.932,8010
7041195,1631768123.934,7998
7041196,1631768123.936,7983
7041197,1631768123.938,7965
7041198,1631768123.94,7947
7041199,1631768123.942,7933
7041200,1631768123.944,7925
7041201,1631768123.946,7922
7041202,1631768123.948,7923
7041203,1631768123.95,7925
7041204,1631768123.952,7924
7041205,1631768123.954,7918
7041206,1631768123.956,7910
7041207,1631768123.958,7904
7041208,1631768123.96,7903
7041209,1631768123.962,7906
7041210,1631768123.964,7909
7041211,1631768123.966,7907
7041212,1631768123.968,7902
7041213,1631768123.97,7901
7041214,1631768123.972,7904
7041215,1631768123.974,7910
7041216,1631768123.976,7923
7041217,1631768123.978,7946
7041218,1631768123.98,7977
7041219,1631768123.982,8010
7041220,1631768123.984,8046
7041221,1631768123.986,8092
7041222,1631768123.988,8146
7041223,1631768123.99,8197
7041224,1631768123.992,8235
7041225,1631768123.994,8261
7041226,1631768123.996,8279
7041227,1631768123.998,8292
7041228,1631768124.0,8300
7041229,1631768124.002,8302
7041230,1631768124.004,8300
7041231,1631768124.006,8297
7041232,1631768124.008,8294
7041233,1631768124.01,8292
7041234,1631768124.012,8291
7041235,1631768124.014,8289
7041236,1631768124.016,8288
7041237,1631768124.018,8287
7041238,1631768124.02,8286
7041239,1631768124.022,8286
7041240,1631768124.024,8286
7041241,1631768124.026,8287
7041242,1631768124.028,8287
7041243,1631768124.03,8288
7041244,1631768124.032,8288
7041245,1631768124.034,8288
7041246,1631768124.036,8288
7041247,1631768124.038,8288
7041248,1631768124.04,8288
7041249,1631768124.042,8287
7041250,1631768124.044,8287
7041251,1631768124.046,8287
7041252,1631768124.048,8287
7041253,1631768124.05,8288
7041254,1631768124.052,8289
7041255,1631768124.054,8290
7041256,1631768124.056,8290
7041257,1631768124.058,8291
7041258,1631768124.06,8291
7041259,1631768124.062,8291
7041260,1631768124.064,8292
7041261,1631768124.066,8293
7041262,1631768124.068,8294
7041263,1631768124.07,8294
7041264,1631768124.072,8295
7041265,1631768124.074,8295
7041266,1631768124.076,8296
7041267,1631768124.078,8297
7041268,1631768124.08,8298
7041269,1631768124.082,8299
7041270,1631768124.084,8301
7041271,1631768124.086,8303
7041272,1631768124.088,8304
7041273,1631768124.09,8305
7041274,1631768124.092,8306
7041275,1631768124.094,8307
7041276,1631768124.096,8309
7041277,1631768124.098,8310
7041278,1631768124.1,8313
7041279,1631768124.102,8315
7041280,1631768124.104,8317
7041281,1631768124.106,8318
7041282,1631768124.108,8319
7041283,1631768124.11,8320
7041284,1631768124.112,8321
7041285,1631768124.114,8323
7041286,1631768124.116,8325
7041287,1631768124.118,8327
7041288,1631768124.12,8329
7041289,1631768124.122,8331
7041290,1631768124.124,8333
7041291,1631768124.126,8335
7041292,1631768124.128,8337
7041293,1631768124.13,8339
7041294,1631768124.132,8340
7041295,1631768124.134,8341
7041296,1631768124.136,8342
7041297,1631768124.138,8344
7041298,1631768124.14,8344
7041299,1631768124.142,8345
7041300,1631768124.144,8345
7041301,1631768124.146,8345
7041302,1631768124.148,8344
7041303,1631768124.15,8344
7041304,1631768124.152,8344
7041305,1631768124.154,8343
7041306,1631768124.156,8343
7041307,1631768124.158,8342
7041308,1631768124.16,8339
7041309,1631768124.162,8335
7041310,1631768124.164,8331
7041311,1631768124.166,8327
7041312,1631768124.168,8323
7041313,1631768124.17,8319
7041314,1631768124.172,8315
7041315,1631768124.174,8310
7041316,1631768124.176,8305
7041317,1631768124.178,8300
7041318,1631768124.18,8294
7041319,1631768124.182,8288
7041320,1631768124.184,8282
7041321,1631768124.186,8276
7041322,1631768124.188,8270
7041323,1631768124.19,8264
7041324,1631768124.192,8258
7041325,1631768124.194,8251
7041326,1631768124.196,8244
7041327,1631768124.198,8236
7041328,1631768124.2,8228
7041329,1631768124.202,8220
7041330,1631768124.204,8212
7041331,1631768124.206,8205
7041332,1631768124.208,8198
7041333,1631768124.21,8192
7041334,1631768124.212,8186
7041335,1631768124.214,8181
7041336,1631768124.216,8177
7041337,1631768124.218,8174
7041338,1631768124.22,8171
7041339,1631768124.222,8168
7041340,1631768124.224,8165
7041341,1631768124.226,8163
7041342,1631768124.228,8161
7041343,1631768124.23,8159
7041344,1631768124.232,8157
7041345,1631768124.234,8157
7041346,1631768124.236,8156
7041347,1631768124.238,8155
7041348,1631768124.24,8155
7041349,1631768124.242,8155
7041350,1631768124.244,8154
7041351,1631768124.246,8154
7041352,1631768124.248,8154
7041353,1631768124.25,8155
7041354,1631768124.252,8155
7041355,1631768124.254,8156
7041356,1631768124.256,8156
7041357,1631768124.258,8157
7041358,1631768124.26,8157
7041359,1631768124.262,8157
7041360,1631768124.264,8158
7041361,1631768124.266,8158
7041362,1631768124.268,8158
7041363,1631768124.27,8159
7041364,1631768124.272,8159
7041365,1631768124.274,8159
7041366,1631768124.276,8159
7041367,1631768124.278,8160
7041368,1631768124.28,8160
7041369,1631768124.282,8159
7041370,1631768124.284,8159
7041371,1631768124.286,8158
7041372,1631768124.288,8157
7041373,1631768124.29,8155
7041374,1631768124.292,8154
7041375,1631768124.294,8155
7041376,1631768124.296,8159
7041377,1631768124.298,8163
7041378,1631768124.3,8167
7041379,1631768124.302,8170
7041380,1631768124.304,8174
7041381,1631768124.306,8179
7041382,1631768124.308,8184
7041383,1631768124.31,8188
7041384,1631768124.312,8191
7041385,1631768124.314,8192
7041386,1631768124.316,8193
7041387,1631768124.318,8193
7041388,1631768124.32,8193
7041389,1631768124.322,8190
7041390,1631768124.324,8187
7041391,1631768124.326,8183
7041392,1631768124.328,8181
7041393,1631768124.33,8178
7041394,1631768124.332,8173
7041395,1631768124.334,8168
7041396,1631768124.336,8162
7041397,1631768124.338,8156
7041398,1631768124.34,8150
7041399,1631768124.342,8146
7041400,1631768124.344,8144
7041401,1631768124.346,8143
7041402,1631768124.348,8143
7041403,1631768124.35,8143
7041404,1631768124.352,8143
7041405,1631768124.354,8143
7041406,1631768124.356,8143
7041407,1631768124.358,8143
7041408,1631768124.36,8142
7041409,1631768124.362,8143
7041410,1631768124.364,8143
7041411,1631768124.366,8143
7041412,1631768124.368,8143
7041413,1631768124.37,8143
7041414,1631768124.372,8143
7041415,1631768124.374,8143
7041416,1631768124.376,8143
7041417,1631768124.378,8142
7041418,1631768124.38,8142
7041419,1631768124.382,8142
7041420,1631768124.384,8142
7041421,1631768124.386,8142
7041422,1631768124.388,8140
7041423,1631768124.39,8136
7041424,1631768124.392,8126
7041425,1631768124.394,8108
7041426,1631768124.396,8084
7041427,1631768124.398,8062
7041428,1631768124.4,8048
7041429,1631768124.402,8046
7041430,1631768124.404,8051
7041431,1631768124.406,8059
7041432,1631768124.408,8067
7041433,1631768124.41,8079
7041434,1631768124.412,8105
7041435,1631768124.414,8147
7041436,1631768124.416,8192
7041437,1631768124.418,8223
7041438,1631768124.42,8229
7041439,1631768124.422,8211
7041440,1631768124.424,8178
7041441,1631768124.426,8137
7041442,1631768124.428,8093
7041443,1631768124.43,8053
7041444,1631768124.432,8020
7041445,1631768124.434,7996
7041446,1631768124.436,7980
7041447,1631768124.438,7970
7041448,1631768124.44,7960
7041449,1631768124.442,7947
7041450,1631768124.444,7929
7041451,1631768124.446,7910
7041452,1631768124.448,7893
7041453,1631768124.45,7881
7041454,1631768124.452,7874
7041455,1631768124.454,7872
7041456,1631768124.456,7873
7041457,1631768124.458,7872
7041458,1631768124.46,7867
7041459,1631768124.462,7858
7041460,1631768124.464,7848
7041461,1631768124.466,7843
7041462,1631768124.468,7842
7041463,1631768124.47,7845
7041464,1631768124.472,7844
7041465,1631768124.474,7841
7041466,1631768124.476,7837
7041467,1631768124.478,7836
7041468,1631768124.48,7840
7041469,1631768124.482,7848
7041470,1631768124.484,7867
7041471,1631768124.486,7897
7041472,1631768124.488,7931
7041473,1631768124.49,7965
7041474,1631768124.492,8003
7041475,1631768124.494,8050
7041476,1631768124.496,8102
7041477,1631768124.498,8150
7041478,1631768124.5,8186
7041479,1631768124.502,8211
7041480,1631768124.504,8230
7041481,1631768124.506,8242
7041482,1631768124.508,8248
7041483,1631768124.51,8248
7041484,1631768124.512,8245
7041485,1631768124.514,8240
7041486,1631768124.516,8237
7041487,1631768124.518,8234
7041488,1631768124.52,8233
7041489,1631768124.522,8232
7041490,1631768124.524,8231
7041491,1631768124.526,8231
7041492,1631768124.528,8231
7041493,1631768124.53,8230
7041494,1631768124.532,8230
7041495,1631768124.534,8230
7041496,1631768124.536,8230
7041497,1631768124.538,8230
7041498,1631768124.54,8230
7041499,1631768124.542,8230
7041500,1631768124.544,8231
7041501,1631768124.546,8231
7041502,1631768124.548,8231
7041503,1631768124.55,8232
7041504,1631768124.552,8233
7041505,1631768124.554,8234
7041506,1631768124.556,8234
7041507,1631768124.558,8234
7041508,1631768124.56,8235
7041509,1631768124.562,8236
7041510,1631768124.564,8236
7041511,1631768124.566,8237
7041512,1631768124.568,8238
7041513,1631768124.57,8239
7041514,1631768124.572,8241
7041515,1631768124.574,8242
7041516,1631768124.576,8243
7041517,1631768124.578,8244
7041518,1631768124.58,8245
7041519,1631768124.582,8246
7041520,1631768124.584,8248
7041521,1631768124.586,8249
7041522,1631768124.588,8251
7041523,1631768124.59,8253
7041524,1631768124.592,8255
7041525,1631768124.594,8257
7041526,1631768124.596,8259
7041527,1631768124.598,8261
7041528,1631768124.6,8263
7041529,1631768124.602,8265
7041530,1631768124.604,8267
7041531,1631768124.606,8269
7041532,1631768124.608,8271
7041533,1631768124.61,8273
7041534,1631768124.612,8275
7041535,1631768124.614,8278
7041536,1631768124.616,8281
7041537,1631768124.618,8283
7041538,1631768124.62,8286
7041539,1631768124.622,8288
7041540,1631768124.624,8290
7041541,1631768124.626,8292
7041542,1631768124.628,8293
7041543,1631768124.63,8295
7041544,1631768124.632,8297
7041545,1631768124.634,8299
7041546,1631768124.636,8301
7041547,1631768124.638,8304
7041548,1631768124.64,8305
7041549,1631768124.642,8307
7041550,1631768124.644,8309
7041551,1631768124.646,8310
7041552,1631768124.648,8311
7041553,1631768124.65,8312
7041554,1631768124.652,8313
7041555,1631768124.654,8313
7041556,1631768124.656,8313
7041557,1631768124.658,8312
7041558,1631768124.66,8310
7041559,1631768124.662,8308
7041560,1631768124.664,8306
7041561,1631768124.666,8303
7041562,1631768124.668,8301
7041563,1631768124.67,8298
7041564,1631768124.672,8295
7041565,1631768124.674,8290
7041566,1631768124.676,8286
7041567,1631768124.678,8281
7041568,1631768124.68,8276
7041569,1631768124.682,8272
7041570,1631768124.684,8267
7041571,1631768124.686,8262
7041572,1631768124.688,8257
7041573,1631768124.69,8251
7041574,1631768124.692,8245
7041575,1631768124.694,8239
7041576,1631768124.696,8233
7041577,1631768124.698,8226
7041578,1631768124.7,8219
7041579,1631768124.702,8211
7041580,1631768124.704,8204
7041581,1631768124.706,8196
7041582,1631768124.708,8189
7041583,1631768124.71,8181
7041584,1631768124.712,8174
7041585,1631768124.714,8168
7041586,1631768124.716,8162
7041587,1631768124.718,8156
7041588,1631768124.72,8151
7041589,1631768124.722,8146
7041590,1631768124.724,8142
7041591,1631768124.726,8138
7041592,1631768124.728,8134
7041593,1631768124.73,8132
7041594,1631768124.732,8129
7041595,1631768124.734,8127
7041596,1631768124.736,8126
7041597,1631768124.738,8125
7041598,1631768124.74,8124
7041599,1631768124.742,8124
7041600,1631768124.744,8123
7041601,1631768124.746,8122
7041602,1631768124.748,8122
7041603,1631768124.75,8121
7041604,1631768124.752,8121
7041605,1631768124.754,8122
7041606,1631768124.756,8122
7041607,1631768124.758,8122
7041608,1631768124.76,8122
7041609,1631768124.762,8122
7041610,1631768124.764,8122
7041611,1631768124.766,8122
7041612,1631768124.768,8122
7041613,1631768124.77,8123
7041614,1631768124.772,8123
7041615,1631768124.774,8123
7041616,1631768124.776,8123
7041617,1631768124.778,8123
7041618,1631768124.78,8123
7041619,1631768124.782,8123
7041620,1631768124.784,8123
7041621,1631768124.786,8123
7041622,1631768124.788,8123
7041623,1631768124.79,8124
7041624,1631768124.792,8124
7041625,1631768124.794,8123
7041626,1631768124.796,8123
7041627,1631768124.798,8123
7041628,1631768124.8,8123
7041629,1631768124.802,8124
7041630,1631768124.804,8124
7041631,1631768124.806,8124
7041632,1631768124.808,8125
7041633,1631768124.81,8124
7041634,1631768124.812,8124
7041635,1631768124.814,8123
7041636,1631768124.816,8122
7041637,1631768124.818,8123
7041638,1631768124.82,8123
7041639,1631768124.822,8123
7041640,1631768124.824,8120
7041641,1631768124.826,8117
7041642,1631768124.828,8114
7041643,1631768124.83,8114
7041644,1631768124.832,8115
7041645,1631768124.834,8120
7041646,1631768124.836,8126
7041647,1631768124.838,8132
7041648,1631768124.84,8139
7041649,1631768124.842,8147
7041650,1631768124.844,8154
7041651,1631768124.846,8159
7041652,1631768124.848,8160
7041653,1631768124.85,8159
7041654,1631768124.852,8156
7041655,1631768124.854,8152
7041656,1631768124.856,8148
7041657,1631768124.858,8143
7041658,1631768124.86,8141
7041659,1631768124.862,8140
7041660,1631768124.864,8140
7041661,1631768124.866,8139
7041662,1631768124.868,8138
7041663,1631768124.87,8135
7041664,1631768124.872,8130
7041665,1631768124.874,8125
7041666,1631768124.876,8121
7041667,1631768124.878,8119
7041668,1631768124.88,8119
7041669,1631768124.882,8120
7041670,1631768124.884,8122
7041671,1631768124.886,8124
7041672,1631768124.888,8124
7041673,1631768124.89,8124
7041674,1631768124.892,8124
7041675,1631768124.894,8125
7041676,1631768124.896,8126
7041677,1631768124.898,8127
7041678,1631768124.9,8128
7041679,1631768124.902,8128
7041680,1631768124.904,8129
7041681,1631768124.906,8129
7041682,1631768124.908,8130
7041683,1631768124.91,8130
7041684,1631768124.912,8131
7041685,1631768124.914,8132
7041686,1631768124.916,8132
7041687,1631768124.918,8133
7041688,1631768124.92,8133
7041689,1631768124.922,8133
7041690,1631768124.924,8132
7041691,1631768124.926,8126
7041692,1631768124.928,8114
7041693,1631768124.93,8095
7041694,1631768124.932,8072
7041695,1631768124.934,8052
7041696,1631768124.936,8042
7041697,1631768124.938,8043
7041698,1631768124.94,8051
7041699,1631768124.942,8060
7041700,1631768124.944,8069
7041701,1631768124.946,8086
7041702,1631768124.948,8118
7041703,1631768124.95,8164
7041704,1631768124.952,8208
7041705,1631768124.954,8235
7041706,1631768124.956,8236
7041707,1631768124.958,8215
7041708,1631768124.96,8181
7041709,1631768124.962,8143
7041710,1631768124.964,8102
7041711,1631768124.966,8063
7041712,1631768124.968,8029
7041713,1631768124.97,8003
7041714,1631768124.972,7987
7041715,1631768124.974,7975
7041716,1631768124.976,7964
7041717,1631768124.978,7950
7041718,1631768124.98,7933
7041719,1631768124.982,7916
7041720,1631768124.984,7903
7041721,1631768124.986,7896
7041722,1631768124.988,7893
7041723,1631768124.99,7895
7041724,1631768124.992,7896
7041725,1631768124.994,7895
7041726,1631768124.996,7889
7041727,1631768124.998,7881
7041728,1631768125.0,7875
7041729,1631768125.002,7874
7041730,1631768125.004,7877
7041731,1631768125.006,7880
7041732,1631768125.008,7879
7041733,1631768125.01,7876
7041734,1631768125.012,7877
7041735,1631768125.014,7881
7041736,1631768125.016,7888
7041737,1631768125.018,7901
7041738,1631768125.02,7924
7041739,1631768125.022,7956
7041740,1631768125.024,7989
7041741,1631768125.026,8025
7041742,1631768125.028,8068
7041743,1631768125.03,8121
7041744,1631768125.032,8172
7041745,1631768125.034,8213
7041746,1631768125.036,8241
7041747,1631768125.038,8260
7041748,1631768125.04,8273
7041749,1631768125.042,8280
7041750,1631768125.044,8282
7041751,1631768125.046,8280
7041752,1631768125.048,8277
7041753,1631768125.05,8273
7041754,1631768125.052,8271
7041755,1631768125.054,8269
7041756,1631768125.056,8268
7041757,1631768125.058,8268
7041758,1631768125.06,8268
7041759,1631768125.062,8268
7041760,1631768125.064,8267
7041761,1631768125.066,8267
7041762,1631768125.068,8267
7041763,1631768125.07,8267
7041764,1631768125.072,8268
7041765,1631768125.074,8268
7041766,1631768125.076,8268
7041767,1631768125.078,8268
7041768,1631768125.08,8269
7041769,1631768125.082,8270
7041770,1631768125.084,8270
7041771,1631768125.086,8271
7041772,1631768125.088,8272
7041773,1631768125.09,8272
7041774,1631768125.092,8273
7041775,1631768125.094,8273
7041776,1631768125.096,8274
7041777,1631768125.098,8275
7041778,1631768125.1,8276
7041779,1631768125.102,8277
7041780,1631768125.104,8278
7041781,1631768125.106,8279
7041782,1631768125.108,8280
7041783,1631768125.11,8281
7041784,1631768125.112,8282
7041785,1631768125.114,8283
7041786,1631768125.116,8285
7041787,1631768125.118,8286
7041788,1631768125.12,8288
7041789,1631768125.122,8289
7041790,1631768125.124,8291
7041791,1631768125.126,8292
7041792,1631768125.128,8293
7041793,1631768125.13,8294
7041794,1631768125.132,8296
7041795,1631768125.134,8299
7041796,1631768125.136,8301
7041797,1631768125.138,8303
7041798,1631768125.14,8305
7041799,1631768125.142,8307
7041800,1631768125.144,8309
7041801,1631768125.146,8311
7041802,1631768125.148,8312
7041803,1631768125.15,8314
7041804,1631768125.152,8316
7041805,1631768125.154,8318
7041806,1631768125.156,8320
7041807,1631768125.158,8322
7041808,1631768125.16,8324
7041809,1631768125.162,8326
7041810,1631768125.164,8328
7041811,1631768125.166,8330
7041812,1631768125.168,8333
7041813,1631768125.17,8335
7041814,1631768125.172,8337
7041815,1631768125.174,8339
7041816,1631768125.176,8341
7041817,1631768125.178,8343
7041818,1631768125.18,8344
7041819,1631768125.182,8346
7041820,1631768125.184,8347
7041821,1631768125.186,8348
7041822,1631768125.188,8349
7041823,1631768125.19,8350
7041824,1631768125.192,8350
7041825,1631768125.194,8350
7041826,1631768125.196,8348
7041827,1631768125.198,8347
7041828,1631768125.2,8346
7041829,1631768125.202,8344
7041830,1631768125.204,8342
7041831,1631768125.206,8340
7041832,1631768125.208,8336
7041833,1631768125.21,8333
7041834,1631768125.212,8329
7041835,1631768125.214,8326
7041836,1631768125.216,8322
7041837,1631768125.218,8318
7041838,1631768125.22,8313
7041839,1631768125.222,8308
7041840,1631768125.224,8302
7041841,1631768125.226,8296
7041842,1631768125.228,8289
7041843,1631768125.23,8283
7041844,1631768125.232,8276
7041845,1631768125.234,8270
7041846,1631768125.236,8263
7041847,1631768125.238,8255
7041848,1631768125.24,8248
7041849,1631768125.242,8241
7041850,1631768125.244,8234
7041851,1631768125.246,8227
7041852,1631768125.248,8221
7041853,1631768125.25,8215
7041854,1631768125.252,8209
7041855,1631768125.254,8204
7041856,1631768125.256,8199
7041857,1631768125.258,8195
7041858,1631768125.26,8191
7041859,1631768125.262,8188
7041860,1631768125.264,8186
7041861,1631768125.266,8183
7041862,1631768125.268,8181
7041863,1631768125.27,8179
7041864,1631768125.272,8177
7041865,1631768125.274,8176
7041866,1631768125.276,8174
7041867,1631768125.278,8174
7041868,1631768125.28,8174
7041869,1631768125.282,8174
7041870,1631768125.284,8174
7041871,1631768125.286,8174
7041872,1631768125.288,8174
7041873,1631768125.29,8175
7041874,1631768125.292,8175
7041875,1631768125.294,8175
7041876,1631768125.296,8175
7041877,1631768125.298,8175
7041878,1631768125.3,8176
7041879,1631768125.302,8176
7041880,1631768125.304,8177
7041881,1631768125.306,8178
7041882,1631768125.308,8179
7041883,1631768125.31,8180
7041884,1631768125.312,8180
7041885,1631768125.314,8180
7041886,1631768125.316,8180
7041887,1631768125.318,8180
7041888,1631768125.32,8180
7041889,1631768125.322,8181
7041890,1631768125.324,8181
7041891,1631768125.326,8181
7041892,1631768125.328,8181
7041893,1631768125.33,8181
7041894,1631768125.332,8180
7041895,1631768125.334,8180
7041896,1631768125.336,8179
7041897,1631768125.338,8180
7041898,1631768125.34,8183
7041899,1631768125.342,8187
7041900,1631768125.344,8190
7041901,1631768125.346,8193
7041902,1631768125.348,8198
7041903,1631768125.35,8203
7041904,1631768125.352,8209
7041905,1631768125.354,8214
7041906,1631768125.356,8218
7041907,1631768125.358,8219
7041908,1631768125.36,8220
7041909,1631768125.362,8221
7041910,1631768125.364,8220
7041911,1631768125.366,8218
7041912,1631768125.368,8215
7041913,1631768125.37,8212
7041914,1631768125.372,8209
7041915,1631768125.374,8206
7041916,1631768125.376,8202
7041917,1631768125.378,8197
7041918,1631768125.38,8191
7041919,1631768125.382,8185
7041920,1631768125.384,8180
7041921,1631768125.386,8176
7041922,1631768125.388,8174
7041923,1631768125.39,8174
7041924,1631768125.392,8174
7041925,1631768125.394,8176
7041926,1631768125.396,8177
7041927,1631768125.398,8177
7041928,1631768125.4,8177
7041929,1631768125.402,8178
7041930,1631768125.404,8178
7041931,1631768125.406,8179
7041932,1631768125.408,8180
7041933,1631768125.41,8180
7041934,1631768125.412,8180
7041935,1631768125.414,8180
7041936,1631768125.416,8180
7041937,1631768125.418,8181
7041938,1631768125.42,8181
7041939,1631768125.422,8181
7041940,1631768125.424,8181
7041941,1631768125.426,8181
7041942,1631768125.428,8181
7041943,1631768125.43,8181
7041944,1631768125.432,8179
7041945,1631768125.434,8175
7041946,1631768125.436,8164
7041947,1631768125.438,8146
7041948,1631768125.44,8122
7041949,1631768125.442,8101
7041950,1631768125.444,8089
7041951,1631768125.446,8089
7041952,1631768125.448,8095
7041953,1631768125.45,8103
7041954,1631768125.452,8111
7041955,1631768125.454,8124
7041956,1631768125.456,8150
7041957,1631768125.458,8191
7041958,1631768125.46,8235
7041959,1631768125.462,8263
7041960,1631768125.464,8267
7041961,1631768125.466,8247
7041962,1631768125.468,8213
7041963,1631768125.47,8172
7041964,1631768125.472,8129
7041965,1631768125.474,8091
7041966,1631768125.476,8060
7041967,1631768125.478,8036
7041968,1631768125.48,8022
7041969,1631768125.482,8013
7041970,1631768125.484,8004
7041971,1631768125.486,7990
7041972,1631768125.488,7973
7041973,1631768125.49,7954
7041974,1631768125.492,7938
7041975,1631768125.494,7928
7041976,1631768125.496,7924
7041977,1631768125.498,7925
7041978,1631768125.5,7928
7041979,1631768125.502,7929
7041980,1631768125.504,7924
7041981,1631768125.506,7915
7041982,1631768125.508,7907
7041983,1631768125.51,7904
7041984,1631768125.512,7906
7041985,1631768125.514,7908
7041986,1631768125.516,7907
7041987,1631768125.518,7903
7041988,1631768125.52,7897
7041989,1631768125.522,7896
7041990,1631768125.524,7900
7041991,1631768125.526,7912
7041992,1631768125.528,7935
7041993,1631768125.53,7967
7041994,1631768125.532,8002
7041995,1631768125.534,8040
7041996,1631768125.536,8087
7041997,1631768125.538,8142
7041998,1631768125.54,8197
7041999,1631768125.542,8240
7042000,1631768125.544,8269
7042001,1631768125.546,8289
7042002,1631768125.548,8304
7042003,1631768125.55,8313
7042004,1631768125.552,8316
7042005,1631768125.554,8314
7042006,1631768125.556,8310
7042007,1631768125.558,8306
7042008,1631768125.56,8304
7042009,1631768125.562,8302
7042010,1631768125.564,8301
7042011,1631768125.566,8299
7042012,1631768125.568,8298
7042013,1631768125.57,8298
7042014,1631768125.572,8298
7042015,1631768125.574,8299
7042016,1631768125.576,8298
7042017,1631768125.578,8298
7042018,1631768125.58,8297
7042019,1631768125.582,8297
7042020,1631768125.584,8296
7042021,1631768125.586,8296
7042022,1631768125.588,8297
7042023,1631768125.59,8297
7042024,1631768125.592,8297
7042025,1631768125.594,8297
7042026,1631768125.596,8298
7042027,1631768125.598,8298
7042028,1631768125.6,8298
7042029,1631768125.602,8299
7042030,1631768125.604,8299
7042031,1631768125.606,8300
7042032,1631768125.608,8301
7042033,1631768125.61,8301
7042034,1631768125.612,8302
7042035,1631768125.614,8303
7042036,1631768125.616,8304
7042037,1631768125.618,8305
7042038,1631768125.62,8306
7042039,1631768125.622,8307
7042040,1631768125.624,8308
7042041,1631768125.626,8310
7042042,1631768125.628,8311
7042043,1631768125.63,8312
7042044,1631768125.632,8314
7042045,1631768125.634,8315
7042046,1631768125.636,8317
7042047,1631768125.638,8319
7042048,1631768125.64,8321
7042049,1631768125.642,8322
7042050,1631768125.644,8324
7042051,1631768125.646,8326
7042052,1631768125.648,8328
7042053,1631768125.65,8330
7042054,1631768125.652,8332
7042055,1631768125.654,8333
7042056,1631768125.656,8335
7042057,1631768125.658,8337
7042058,1631768125.66,8339
7042059,1631768125.662,8341
7042060,1631768125.664,8344
7042061,1631768125.666,8346
7042062,1631768125.668,8348
7042063,1631768125.67,8350
7042064,1631768125.672,8351
7042065,1631768125.674,8353
7042066,1631768125.676,8355
7042067,1631768125.678,8356
7042068,1631768125.68,8358
7042069,1631768125.682,8359
7042070,1631768125.684,8360
7042071,1631768125.686,8362
7042072,1631768125.688,8363
7042073,1631768125.69,8365
7042074,1631768125.692,8366
7042075,1631768125.694,8367
7042076,1631768125.696,8367
7042077,1631768125.698,8367
7042078,1631768125.7,8367
7042079,1631768125.702,8366
7042080,1631768125.704,8365
7042081,1631768125.706,8363
7042082,1631768125.708,8359
7042083,1631768125.71,8356
7042084,1631768125.712,8353
7042085,1631768125.714,8350
7042086,1631768125.716,8347
7042087,1631768125.718,8343
7042088,1631768125.72,8338
7042089,1631768125.722,8334
7042090,1631768125.724,8330
7042091,1631768125.726,8326
7042092,1631768125.728,8321
7042093,1631768125.73,8316
7042094,1631768125.732,8311
7042095,1631768125.734,8306
7042096,1631768125.736,8300
7042097,1631768125.738,8295
7042098,1631768125.74,8288
7042099,1631768125.742,8281
7042100,1631768125.744,8274
7042101,1631768125.746,8267
7042102,1631768125.748,8260
7042103,1631768125.75,8253
7042104,1631768125.752,8246
7042105,1631768125.754,8239
7042106,1631768125.756,8232
7042107,1631768125.758,8226
7042108,1631768125.76,8221
7042109,1631768125.762,8216
7042110,1631768125.764,8211
7042111,1631768125.766,8207
7042112,1631768125.768,8203
7042113,1631768125.77,8200
7042114,1631768125.772,8198
7042115,1631768125.774,8195
7042116,1631768125.776,8193
7042117,1631768125.778,8192
7042118,1631768125.78,8191
7042119,1631768125.782,8190
7042120,1631768125.784,8190
7042121,1631768125.786,8190
7042122,1631768125.788,8190
7042123,1631768125.79,8190
7042124,1631768125.792,8190
7042125,1631768125.794,8191
7042126,1631768125.796,8192
7042127,1631768125.798,8193
7042128,1631768125.8,8194
7042129,1631768125.802,8195
7042130,1631768125.804,8196
7042131,1631768125.806,8197
7042132,1631768125.808,8198
7042133,1631768125.81,8200
7042134,1631768125.812,8201
7042135,1631768125.814,8202
7042136,1631768125.816,8203
7042137,1631768125.818,8204
7042138,1631768125.82,8205
7042139,1631768125.822,8206
7042140,1631768125.824,8207
7042141,1631768125.826,8208
7042142,1631768125.828,8209
7042143,1631768125.83,8211
7042144,1631768125.832,8212
7042145,1631768125.834,8213
7042146,1631768125.836,8214
7042147,1631768125.838,8214
7042148,1631768125.84,8215
7042149,1631768125.842,8216
7042150,1631768125.844,8217
7042151,1631768125.846,8217
7042152,1631768125.848,8217
7042153,1631768125.85,8217
7042154,1631768125.852,8216
7042155,1631768125.854,8217
7042156,1631768125.856,8221
7042157,1631768125.858,8226
7042158,1631768125.86,8230
7042159,1631768125.862,8234
7042160,1631768125.864,8239
7042161,1631768125.866,8244
7042162,1631768125.868,8249
7042163,1631768125.87,8254
7042164,1631768125.872,8258
7042165,1631768125.874,8260
7042166,1631768125.876,8262
7042167,1631768125.878,8263
7042168,1631768125.88,8262
7042169,1631768125.882,8260
7042170,1631768125.884,8257
7042171,1631768125.886,8254
7042172,1631768125.888,8252
7042173,1631768125.89,8251
7042174,1631768125.892,8247
7042175,1631768125.894,8243
7042176,1631768125.896,8237
7042177,1631768125.898,8232
7042178,1631768125.9,8227
7042179,1631768125.902,8223
7042180,1631768125.904,8221
7042181,1631768125.906,8221
7042182,1631768125.908,8223
7042183,1631768125.91,8224
7042184,1631768125.912,8226
7042185,1631768125.914,8227
7042186,1631768125.916,8227
7042187,1631768125.918,8228
7042188,1631768125.92,8229
7042189,1631768125.922,8230
7042190,1631768125.924,8231
7042191,1631768125.926,8231
7042192,1631768125.928,8231
7042193,1631768125.93,8231
7042194,1631768125.932,8232
7042195,1631768125.934,8232
7042196,1631768125.936,8233
7042197,1631768125.938,8233
7042198,1631768125.94,8234
7042199,1631768125.942,8234
7042200,1631768125.944,8234
7042201,1631768125.946,8234
7042202,1631768125.948,8233
7042203,1631768125.95,8229
7042204,1631768125.952,8220
7042205,1631768125.954,8204
7042206,1631768125.956,8181
7042207,1631768125.958,8158
7042208,1631768125.96,8145
7042209,1631768125.962,8143
7042210,1631768125.964,8149
7042211,1631768125.966,8158
7042212,1631768125.968,8167
7042213,1631768125.97,8181
7042214,1631768125.972,8209
7042215,1631768125.974,8249
7042216,1631768125.976,8294
7042217,1631768125.978,8326
7042218,1631768125.98,8335
7042219,1631768125.982,8320
7042220,1631768125.984,8290
7042221,1631768125.986,8251
7042222,1631768125.988,8209
7042223,1631768125.99,8168
7042224,1631768125.992,8133
7042225,1631768125.994,8106
7042226,1631768125.996,8088
7042227,1631768125.998,8078
7042228,1631768126.0,8068
7042229,1631768126.002,8055
7042230,1631768126.004,8038
7042231,1631768126.006,8019
7042232,1631768126.008,8003
7042233,1631768126.01,7991
7042234,1631768126.012,7986
7042235,1631768126.014,7984
7042236,1631768126.016,7985
7042237,1631768126.018,7985
7042238,1631768126.02,7981
7042239,1631768126.022,7972
7042240,1631768126.024,7963
7042241,1631768126.026,7959
7042242,1631768126.028,7960
7042243,1631768126.03,7962
7042244,1631768126.032,7962
7042245,1631768126.034,7957
7042246,1631768126.036,7954
7042247,1631768126.038,7955
7042248,1631768126.04,7960
7042249,1631768126.042,7970
7042250,1631768126.044,7990
7042251,1631768126.046,8021
7042252,1631768126.048,8055
7042253,1631768126.05,8090
7042254,1631768126.052,8130
7042255,1631768126.054,8180
7042256,1631768126.056,8235
7042257,1631768126.058,8282
7042258,1631768126.06,8315
7042259,1631768126.062,8336
7042260,1631768126.064,8351
7042261,1631768126.066,8361
7042262,1631768126.068,8366
7042263,1631768126.07,8365
7042264,1631768126.072,8363
7042265,1631768126.074,8359
7042266,1631768126.076,8356
7042267,1631768126.078,8353
7042268,1631768126.08,8352
7042269,1631768126.082,8352
7042270,1631768126.084,8351
7042271,1631768126.086,8351
7042272,1631768126.088,8351
7042273,1631768126.09,8351
7042274,1631768126.092,8351
7042275,1631768126.094,8351
7042276,1631768126.096,8351
7042277,1631768126.098,8351
7042278,1631768126.1,8351
7042279,1631768126.102,8350
7042280,1631768126.104,8350
7042281,1631768126.106,8350
7042282,1631768126.108,8351
7042283,1631768126.11,8351
7042284,1631768126.112,8351
7042285,1631768126.114,8352
7042286,1631768126.116,8352
7042287,1631768126.118,8353
7042288,1631768126.12,8353
7042289,1631768126.122,8352
7042290,1631768126.124,8353
7042291,1631768126.126,8353
7042292,1631768126.128,8353
7042293,1631768126.13,8353
7042294,1631768126.132,8354
7042295,1631768126.134,8354
7042296,1631768126.136,8355
7042297,1631768126.138,8356
7042298,1631768126.14,8356
7042299,1631768126.142,8357
7042300,1631768126.144,8358
7042301,1631768126.146,8359
7042302,1631768126.148,8361
7042303,1631768126.15,8362
7042304,1631768126.152,8363
7042305,1631768126.154,8363
7042306,1631768126.156,8364
7042307,1631768126.158,8365
7042308,1631768126.16,8367
7042309,1631768126.162,8369
7042310,1631768126.164,8370
7042311,1631768126.166,8372
7042312,1631768126.168,8373
7042313,1631768126.17,8375
7042314,1631768126.172,8377
7042315,1631768126.174,8379
7042316,1631768126.176,8381
7042317,1631768126.178,8382
7042318,1631768126.18,8384
7042319,1631768126.182,8386
7042320,1631768126.184,8388
7042321,1631768126.186,8390
7042322,1631768126.188,8391
7042323,1631768126.19,8393
7042324,1631768126.192,8394
7042325,1631768126.194,8396
7042326,1631768126.196,8397
7042327,1631768126.198,8399
7042328,1631768126.2,8401
7042329,1631768126.202,8402
7042330,1631768126.204,8404
7042331,1631768126.206,8405
7042332,1631768126.208,8407
7042333,1631768126.21,8408
7042334,1631768126.212,8408
7042335,1631768126.214,8408
7042336,1631768126.216,8408
7042337,1631768126.218,8408
7042338,1631768126.22,8407
7042339,1631768126.222,8405
7042340,1631768126.224,8403
7042341,1631768126.226,8401
7042342,1631768126.228,8398
7042343,1631768126.23,8395
7042344,1631768126.232,8391
7042345,1631768126.234,8387
7042346,1631768126.236,8383
7042347,1631768126.238,8379
7042348,1631768126.24,8374
7042349,1631768126.242,8369
7042350,1631768126.244,8364
7042351,1631768126.246,8359
7042352,1631768126.248,8353
7042353,1631768126.25,8346
7042354,1631768126.252,8339
7042355,1631768126.254,8332
7042356,1631768126.256,8326
7042357,1631768126.258,8319
7042358,1631768126.26,8312
7042359,1631768126.262,8304
7042360,1631768126.264,8297
7042361,1631768126.266,8289
7042362,1631768126.268,8281
7042363,1631768126.27,8273
7042364,1631768126.272,8266
7042365,1631768126.274,8260
7042366,1631768126.276,8254
7042367,1631768126.278,8248
7042368,1631768126.28,8243
7042369,1631768126.282,8239
7042370,1631768126.284,8235
7042371,1631768126.286,8232
7042372,1631768126.288,8228
7042373,1631768126.29,8225
7042374,1631768126.292,8222
7042375,1631768126.294,8220
7042376,1631768126.296,8218
7042377,1631768126.298,8217
7042378,1631768126.3,8216
7042379,1631768126.302,8216
7042380,1631768126.304,8216
7042381,1631768126.306,8215
7042382,1631768126.308,8215
7042383,1631768126.31,8214
7042384,1631768126.312,8213
7042385,1631768126.314,8213
7042386,1631768126.316,8213
7042387,1631768126.318,8214
7042388,1631768126.32,8214
7042389,1631768126.322,8215
7042390,1631768126.324,8215
7042391,1631768126.326,8215
7042392,1631768126.328,8215
7042393,1631768126.33,8215
7042394,1631768126.332,8216
7042395,1631768126.334,8216
7042396,1631768126.336,8216
7042397,1631768126.338,8217
7042398,1631768126.34,8217
7042399,1631768126.342,8218
7042400,1631768126.344,8219
7042401,1631768126.346,8219
7042402,1631768126.348,8219
7042403,1631768126.35,8219
7042404,1631768126.352,8219
7042405,1631768126.354,8220
7042406,1631768126.356,8221
7042407,1631768126.358,8221
7042408,1631768126.36,8221
7042409,1631768126.362,8221
7042410,1631768126.364,8221
7042411,1631768126.366,8221
7042412,1631768126.368,8220
7042413,1631768126.37,8219
7042414,1631768126.372,8219
7042415,1631768126.374,8218
7042416,1631768126.376,8218
7042417,1631768126.378,8216
7042418,1631768126.38,8214
7042419,1631768126.382,8211
7042420,1631768126.384,8209
7042421,1631768126.386,8208
7042422,1631768126.388,8209
7042423,1631768126.39,8214
7042424,1631768126.392,8220
7042425,1631768126.394,8226
7042426,1631768126.396,8234
7042427,1631768126.398,8242
7042428,1631768126.4,8249
7042429,1631768126.402,8253
7042430,1631768126.404,8253
7042431,1631768126.406,8250
7042432,1631768126.408,8247
7042433,1631768126.41,8243
7042434,1631768126.412,8239
7042435,1631768126.414,8235
7042436,1631768126.416,8234
7042437,1631768126.418,8234
7042438,1631768126.42,8233
7042439,1631768126.422,8232
7042440,1631768126.424,8229
7042441,1631768126.426,8224
7042442,1631768126.428,8219
7042443,1631768126.43,8214
7042444,1631768126.432,8211
7042445,1631768126.434,8209
7042446,1631768126.436,8209
7042447,1631768126.438,8210
7042448,1631768126.44,8211
7042449,1631768126.442,8213
7042450,1631768126.444,8213
7042451,1631768126.446,8214
7042452,1631768126.448,8214
7042453,1631768126.45,8214
7042454,1631768126.452,8215
7042455,1631768126.454,8215
7042456,1631768126.456,8215
7042457,1631768126.458,8215
7042458,1631768126.46,8215
7042459,1631768126.462,8216
7042460,1631768126.464,8217
7042461,1631768126.466,8217
7042462,1631768126.468,8218
7042463,1631768126.47,8218
7042464,1631768126.472,8219
7042465,1631768126.474,8219
7042466,1631768126.476,8220
7042467,1631768126.478,8220
7042468,1631768126.48,8219
7042469,1631768126.482,8214
7042470,1631768126.484,8202
7042471,1631768126.486,8183
7042472,1631768126.488,8159
7042473,1631768126.49,8140
7042474,1631768126.492,8132
7042475,1631768126.494,8135
7042476,1631768126.496,8144
7042477,1631768126.498,8153
7042478,1631768126.5,8162
7042479,1631768126.502,8179
7042480,1631768126.504,8212
7042481,1631768126.506,8258
7042482,1631768126.508,8303
7042483,1631768126.51,8330
7042484,1631768126.512,8330
7042485,1631768126.514,8308
7042486,1631768126.516,8274
7042487,1631768126.518,8237
7042488,1631768126.52,8199
7042489,1631768126.522,8161
7042490,1631768126.524,8128
7042491,1631768126.526,8103
7042492,1631768126.528,8086
7042493,1631768126.53,8074
7042494,1631768126.532,8061
7042495,1631768126.534,8046
7042496,1631768126.536,8028
7042497,1631768126.538,8011
7042498,1631768126.54,7999
7042499,1631768126.542,7991
7042500,1631768126.544,7988
7042501,1631768126.546,7988
7042502,1631768126.548,7989
7042503,1631768126.55,7986
7042504,1631768126.552,7979
7042505,1631768126.554,7970
7042506,1631768126.556,7964
7042507,1631768126.558,7963
7042508,1631768126.56,7966
7042509,1631768126.562,7969
7042510,1631768126.564,7967
7042511,1631768126.566,7963
7042512,1631768126.568,7963
7042513,1631768126.57,7967
7042514,1631768126.572,7975
7042515,1631768126.574,7990
7042516,1631768126.576,8017
7042517,1631768126.578,8049
7042518,1631768126.58,8083
7042519,1631768126.582,8119
7042520,1631768126.584,8161
7042521,1631768126.586,8211
7042522,1631768126.588,8260
7042523,1631768126.59,8300
7042524,1631768126.592,8327
7042525,1631768126.594,8346
7042526,1631768126.596,8359
7042527,1631768126.598,8366
7042528,1631768126.6,8368
7042529,1631768126.602,8366
7042530,1631768126.604,8363
7042531,1631768126.606,8359
7042532,1631768126.608,8356
7042533,1631768126.61,8354
7042534,1631768126.612,8353
7042535,1631768126.614,8351
7042536,1631768126.616,8350
7042537,1631768126.618,8350
7042538,1631768126.62,8349
7042539,1631768126.622,8349
7042540,1631768126.624,8348
7042541,1631768126.626,8348
7042542,1631768126.628,8347
7042543,1631768126.63,8346
7042544,1631768126.632,8345
7042545,1631768126.634,8345
7042546,1631768126.636,8344
7042547,1631768126.638,8344
7042548,1631768126.64,8344
7042549,1631768126.642,8343
7042550,1631768126.644,8342
7042551,1631768126.646,8342
7042552,1631768126.648,8342
7042553,1631768126.65,8342
7042554,1631768126.652,8341
7042555,1631768126.654,8341
7042556,1631768126.656,8340
7042557,1631768126.658,8340
7042558,1631768126.66,8339
7042559,1631768126.662,8339
7042560,1631768126.664,8339
7042561,1631768126.666,8340
7042562,1631768126.668,8340
7042563,1631768126.67,8340
7042564,1631768126.672,8340
7042565,1631768126.674,8340
7042566,1631768126.676,8340
7042567,1631768126.678,8340
7042568,1631768126.68,8340
7042569,1631768126.682,8341
7042570,1631768126.684,8342
7042571,1631768126.686,8343
7042572,1631768126.688,8343
7042573,1631768126.69,8343
7042574,1631768126.692,8344
7042575,1631768126.694,8344
7042576,1631768126.696,8345
7042577,1631768126.698,8346
7042578,1631768126.7,8347
7042579,1631768126.702,8348
7042580,1631768126.704,8349
7042581,1631768126.706,8350
7042582,1631768126.708,8350
7042583,1631768126.71,8351
7042584,1631768126.712,8352
7042585,1631768126.714,8353
7042586,1631768126.716,8354
7042587,1631768126.718,8354
7042588,1631768126.72,8355
7042589,1631768126.722,8356
7042590,1631768126.724,8357
7042591,1631768126.726,8359
7042592,1631768126.728,8360
7042593,1631768126.73,8361
7042594,1631768126.732,8363
7042595,1631768126.734,8364
7042596,1631768126.736,8364
7042597,1631768126.738,8365
7042598,1631768126.74,8365
7042599,1631768126.742,8365
7042600,1631768126.744,8364
7042601,1631768126.746,8363
7042602,1631768126.748,8362
7042603,1631768126.75,8360
7042604,1631768126.752,8358
7042605,1631768126.754,8355
7042606,1631768126.756,8353
7042607,1631768126.758,8350
7042608,1631768126.76,8348
7042609,1631768126.762,8344
7042610,1631768126.764,8341
7042611,1631768126.766,8336
7042612,1631768126.768,8330
7042613,1631768126.77,8325
7042614,1631768126.772,8319
7042615,1631768126.774,8315
7042616,1631768126.776,8311
7042617,1631768126.778,8305
7042618,1631768126.78,8299
7042619,1631768126.782,8292
7042620,1631768126.784,8284
7042621,1631768126.786,8275
7042622,1631768126.788,8267
7042623,1631768126.79,8259
7042624,1631768126.792,8251
7042625,1631768126.794,8243
7042626,1631768126.796,8235
7042627,1631768126.798,8227
7042628,1631768126.8,8219
7042629,1631768126.802,8212
7042630,1631768126.804,8205
7042631,1631768126.806,8198
7042632,1631768126.808,8191
7042633,1631768126.81,8184
7042634,1631768126.812,8177
7042635,1631768126.814,8171
7042636,1631768126.816,8166
7042637,1631768126.818,8161
7042638,1631768126.82,8158
7042639,1631768126.822,8155
7042640,1631768126.824,8152
7042641,1631768126.826,8149
7042642,1631768126.828,8146
7042643,1631768126.83,8143
7042644,1631768126.832,8141
7042645,1631768126.834,8140
7042646,1631768126.836,8138
7042647,1631768126.838,8137
7042648,1631768126.84,8136
7042649,1631768126.842,8134
7042650,1631768126.844,8133
7042651,1631768126.846,8133
7042652,1631768126.848,8132
7042653,1631768126.85,8131
7042654,1631768126.852,8130
7042655,1631768126.854,8130
7042656,1631768126.856,8130
7042657,1631768126.858,8130
7042658,1631768126.86,8130
7042659,1631768126.862,8129
7042660,1631768126.864,8128
7042661,1631768126.866,8128
7042662,1631768126.868,8127
7042663,1631768126.87,8126
7042664,1631768126.872,8126
7042665,1631768126.874,8126
7042666,1631768126.876,8125
7042667,1631768126.878,8125
7042668,1631768126.88,8123
7042669,1631768126.882,8122
7042670,1631768126.884,8119
7042671,1631768126.886,8117
7042672,1631768126.888,8115
7042673,1631768126.89,8115
7042674,1631768126.892,8116
7042675,1631768126.894,8120
7042676,1631768126.896,8124
7042677,1631768126.898,8128
7042678,1631768126.9,8132
7042679,1631768126.902,8136
7042680,1631768126.904,8139
7042681,1631768126.906,8142
7042682,1631768126.908,8144
7042683,1631768126.91,8144
7042684,1631768126.912,8145
7042685,1631768126.914,8145
7042686,1631768126.916,8145
7042687,1631768126.918,8142
7042688,1631768126.92,8139
7042689,1631768126.922,8135
7042690,1631768126.924,8132
7042691,1631768126.926,8128
7042692,1631768126.928,8124
7042693,1631768126.93,8119
7042694,1631768126.932,8114
7042695,1631768126.934,8109
7042696,1631768126.936,8104
7042697,1631768126.938,8098
7042698,1631768126.94,8095
7042699,1631768126.942,8093
7042700,1631768126.944,8093
7042701,1631768126.946,8093
7042702,1631768126.948,8093
7042703,1631768126.95,8093
7042704,1631768126.952,8092
7042705,1631768126.954,8092
7042706,1631768126.956,8092
7042707,1631768126.958,8092
7042708,1631768126.96,8092
7042709,1631768126.962,8093
7042710,1631768126.964,8093
7042711,1631768126.966,8093
7042712,1631768126.968,8093
7042713,1631768126.97,8092
7042714,1631768126.972,8092
7042715,1631768126.974,8092
7042716,1631768126.976,8092
7042717,1631768126.978,8092
7042718,1631768126.98,8091
7042719,1631768126.982,8090
7042720,1631768126.984,8089
7042721,1631768126.986,8086
7042722,1631768126.988,8079
7042723,1631768126.99,8063
7042724,1631768126.992,8041
7042725,1631768126.994,8018
7042726,1631768126.996,8001
7042727,1631768126.998,7995
7042728,1631768127.0,7998
7042729,1631768127.002,8005
7042730,1631768127.004,8013
7042731,1631768127.006,8024
7042732,1631768127.008,8048
7042733,1631768127.01,8086
7042734,1631768127.012,8131
7042735,1631768127.014,8163
7042736,1631768127.016,8174
7042737,1631768127.018,8163
7042738,1631768127.02,8135
7042739,1631768127.022,8097
7042740,1631768127.024,8053
7042741,1631768127.026,8010
7042742,1631768127.028,7974
7042743,1631768127.03,7946
7042744,1631768127.032,7929
7042745,1631768127.034,7922
7042746,1631768127.036,7917
7042747,1631768127.038,7908
7042748,1631768127.04,7896
7042749,1631768127.042,7880
7042750,1631768127.044,7862
7042751,1631768127.046,7847
7042752,1631768127.048,7836
7042753,1631768127.05,7830
7042754,1631768127.052,7829
7042755,1631768127.054,7830
7042756,1631768127.056,7829
7042757,1631768127.058,7821
7042758,1631768127.06,7811
7042759,1631768127.062,7803
7042760,1631768127.064,7799
7042761,1631768127.066,7799
7042762,1631768127.068,7800
7042763,1631768127.07,7797
7042764,1631768127.072,7790
7042765,1631768127.074,7785
7042766,1631768127.076,7787
7042767,1631768127.078,7795
7042768,1631768127.08,7814
7042769,1631768127.082,7844
7042770,1631768127.084,7879
7042771,1631768127.086,7913
7042772,1631768127.088,7948
7042773,1631768127.09,7993
7042774,1631768127.092,8050
7042775,1631768127.094,8109
7042776,1631768127.096,8158
7042777,1631768127.098,8192
7042778,1631768127.1,8214
7042779,1631768127.102,8228
7042780,1631768127.104,8236
7042781,1631768127.106,8237
7042782,1631768127.108,8235
7042783,1631768127.11,8231
7042784,1631768127.112,8227
7042785,1631768127.114,8225
7042786,1631768127.116,8224
7042787,1631768127.118,8223
7042788,1631768127.12,8223
7042789,1631768127.122,8222
7042790,1631768127.124,8222
7042791,1631768127.126,8223
7042792,1631768127.128,8223
7042793,1631768127.13,8223
7042794,1631768127.132,8223
7042795,1631768127.134,8223
7042796,1631768127.136,8224
7042797,1631768127.138,8225
7042798,1631768127.14,8225
7042799,1631768127.142,8226
7042800,1631768127.144,8226
7042801,1631768127.146,8227
7042802,1631768127.148,8228
7042803,1631768127.15,8229
7042804,1631768127.152,8230
7042805,1631768127.154,8231
7042806,1631768127.156,8232
7042807,1631768127.158,8233
7042808,1631768127.16,8234
7042809,1631768127.162,8236
7042810,1631768127.164,8237
7042811,1631768127.166,8238
7042812,1631768127.168,8239
7042813,1631768127.17,8240
7042814,1631768127.172,8242
7042815,1631768127.174,8242
7042816,1631768127.176,8244
7042817,1631768127.178,8245
7042818,1631768127.18,8247
7042819,1631768127.182,8248
7042820,1631768127.184,8250
7042821,1631768127.186,8252
7042822,1631768127.188,8254
7042823,1631768127.19,8255
7042824,1631768127.192,8257
7042825,1631768127.194,8258
7042826,1631768127.196,8260
7042827,1631768127.198,8262
7042828,1631768127.2,8264
7042829,1631768127.202,8266
7042830,1631768127.204,8268
7042831,1631768127.206,8270
7042832,1631768127.208,8272
7042833,1631768127.21,8273
7042834,1631768127.212,8275
7042835,1631768127.214,8277
7042836,1631768127.216,8278
7042837,1631768127.218,8280
7042838,1631768127.22,8281
7042839,1631768127.222,8283
7042840,1631768127.224,8285
7042841,1631768127.226,8287
7042842,1631768127.228,8289
7042843,1631768127.23,8290
7042844,1631768127.232,8292
7042845,1631768127.234,8293
7042846,1631768127.236,8294
7042847,1631768127.238,8295
7042848,1631768127.24,8296
7042849,1631768127.242,8297
7042850,1631768127.244,8297
7042851,1631768127.246,8298
7042852,1631768127.248,8298
7042853,1631768127.25,8298
7042854,1631768127.252,8298
7042855,1631768127.254,8298
7042856,1631768127.256,8296
7042857,1631768127.258,8295
7042858,1631768127.26,8293
7042859,1631768127.262,8291
7042860,1631768127.264,8290
7042861,1631768127.266,8289
7042862,1631768127.268,8289
7042863,1631768127.27,8288
7042864,1631768127.272,8287
7042865,1631768127.274,8286
7042866,1631768127.276,8284
7042867,1631768127.278,8282
7042868,1631768127.28,8280
7042869,1631768127.282,8277
7042870,1631768127.284,8274
7042871,1631768127.286,8270
7042872,1631768127.288,8266
7042873,1631768127.29,8261
7042874,1631768127.292,8255
7042875,1631768127.294,8249
7042876,1631768127.296,8241
7042877,1631768127.298,8234
7042878,1631768127.3,8227
7042879,1631768127.302,8220
7042880,1631768127.304,8214
7042881,1631768127.306,8207
7042882,1631768127.308,8201
7042883,1631768127.31,8194
7042884,1631768127.312,8188
7042885,1631768127.314,8182
7042886,1631768127.316,8176
7042887,1631768127.318,8172
7042888,1631768127.32,8167
7042889,1631768127.322,8163
7042890,1631768127.324,8160
7042891,1631768127.326,8158
7042892,1631768127.328,8156
7042893,1631768127.33,8154
7042894,1631768127.332,8153
7042895,1631768127.334,8152
7042896,1631768127.336,8152
7042897,1631768127.338,8152
7042898,1631768127.34,8152
7042899,1631768127.342,8152
7042900,1631768127.344,8152
7042901,1631768127.346,8152
7042902,1631768127.348,8153
7042903,1631768127.35,8153
7042904,1631768127.352,8153
7042905,1631768127.354,8154
7042906,1631768127.356,8154
7042907,1631768127.358,8155
7042908,1631768127.36,8155
7042909,1631768127.362,8156
7042910,1631768127.364,8157
7042911,1631768127.366,8158
7042912,1631768127.368,8159
7042913,1631768127.37,8159
7042914,1631768127.372,8160
7042915,1631768127.374,8161
7042916,1631768127.376,8162
7042917,1631768127.378,8163
7042918,1631768127.38,8163
7042919,1631768127.382,8164
7042920,1631768127.384,8164
7042921,1631768127.386,8164
7042922,1631768127.388,8165
7042923,1631768127.39,8165
7042924,1631768127.392,8166
7042925,1631768127.394,8167
7042926,1631768127.396,8167
7042927,1631768127.398,8167
7042928,1631768127.4,8167
7042929,1631768127.402,8167
7042930,1631768127.404,8168
7042931,1631768127.406,8168
7042932,1631768127.408,8168
7042933,1631768127.41,8168
7042934,1631768127.412,8167
7042935,1631768127.414,8167
7042936,1631768127.416,8167
7042937,1631768127.418,8167
7042938,1631768127.42,8166
7042939,1631768127.422,8163
7042940,1631768127.424,8160
7042941,1631768127.426,8156
7042942,1631768127.428,8155
7042943,1631768127.43,8157
7042944,1631768127.432,8162
7042945,1631768127.434,8168
7042946,1631768127.436,8175
7042947,1631768127.438,8182
7042948,1631768127.44,8190
7042949,1631768127.442,8196
7042950,1631768127.444,8200
7042951,1631768127.446,8201
7042952,1631768127.448,8199
7042953,1631768127.45,8195
7042954,1631768127.452,8191
7042955,1631768127.454,8186
7042956,1631768127.456,8183
7042957,1631768127.458,8182
7042958,1631768127.46,8182
7042959,1631768127.462,8182
7042960,1631768127.464,8181
7042961,1631768127.466,8178
7042962,1631768127.468,8174
7042963,1631768127.47,8169
7042964,1631768127.472,8164
7042965,1631768127.474,8160
7042966,1631768127.476,8157
7042967,1631768127.478,8157
7042968,1631768127.48,8158
7042969,1631768127.482,8159
7042970,1631768127.484,8160
7042971,1631768127.486,8161
7042972,1631768127.488,8161
7042973,1631768127.49,8162
7042974,1631768127.492,8162
7042975,1631768127.494,8162
7042976,1631768127.496,8162
7042977,1631768127.498,8163
7042978,1631768127.5,8164
7042979,1631768127.502,8164
7042980,1631768127.504,8165
7042981,1631768127.506,8165
7042982,1631768127.508,8165
7042983,1631768127.51,8165
7042984,1631768127.512,8165
7042985,1631768127.514,8165
7042986,1631768127.516,8165
7042987,1631768127.518,8165
7042988,1631768127.52,8165
7042989,1631768127.522,8164
7042990,1631768127.524,8158
7042991,1631768127.526,8145
7042992,1631768127.528,8124
7042993,1631768127.53,8099
7042994,1631768127.532,8079
7042995,1631768127.534,8070
7042996,1631768127.536,8073
7042997,1631768127.538,8081
7042998,1631768127.54,8088
7042999,1631768127.542,8096
7043000,1631768127.544,8112
7043001,1631768127.546,8143
7043002,1631768127.548,8189
7043003,1631768127.55,8235
7043004,1631768127.552,8262
7043005,1631768127.554,8262
7043006,1631768127.556,8240
7043007,1631768127.558,8206
7043008,1631768127.56,8168
7043009,1631768127.562,8129
7043010,1631768127.564,8091
7043011,1631768127.566,8058
7043012,1631768127.568,8031
7043013,1631768127.57,8012
7043014,1631768127.572,7997
7043015,1631768127.574,7982
7043016,1631768127.576,7965
7043017,1631768127.578,7946
7043018,1631768127.58,7928
7043019,1631768127.582,7915
7043020,1631768127.584,7908
7043021,1631768127.586,7906
7043022,1631768127.588,7907
7043023,1631768127.59,7908
7043024,1631768127.592,7906
7043025,1631768127.594,7899
7043026,1631768127.596,7890
7043027,1631768127.598,7884
7043028,1631768127.6,7882
7043029,1631768127.602,7885
7043030,1631768127.604,7886
7043031,1631768127.606,7884
7043032,1631768127.608,7880
7043033,1631768127.61,7880
7043034,1631768127.612,7885
7043035,1631768127.614,7894
7043036,1631768127.616,7912
7043037,1631768127.618,7941
7043038,1631768127.62,7975
7043039,1631768127.622,8010
7043040,1631768127.624,8047
7043041,1631768127.626,8092
7043042,1631768127.628,8143
7043043,1631768127.63,8191
7043044,1631768127.632,8228
7043045,1631768127.634,8253
7043046,1631768127.636,8271
7043047,1631768127.638,8283
7043048,1631768127.64,8290
7043049,1631768127.642,8291
7043050,1631768127.644,8288
7043051,1631768127.646,8284
7043052,1631768127.648,8280
7043053,1631768127.65,8278
7043054,1631768127.652,8276
7043055,1631768127.654,8274
7043056,1631768127.656,8273
7043057,1631768127.658,8272
7043058,1631768127.66,8271
7043059,1631768127.662,8270
7043060,1631768127.664,8270
7043061,1631768127.666,8270
7043062,1631768127.668,8270
7043063,1631768127.67,8270
7043064,1631768127.672,8270
7043065,1631768127.674,8270
7043066,1631768127.676,8269
7043067,1631768127.678,8269
7043068,1631768127.68,8270
7043069,1631768127.682,8270
7043070,1631768127.684,8270
7043071,1631768127.686,8270
7043072,1631768127.688,8271
7043073,1631768127.69,8271
7043074,1631768127.692,8272
7043075,1631768127.694,8273
7043076,1631768127.696,8273
7043077,1631768127.698,8274
7043078,1631768127.7,8275
7043079,1631768127.702,8276
7043080,1631768127.704,8278
7043081,1631768127.706,8278
7043082,1631768127.708,8279
7043083,1631768127.71,8280
7043084,1631768127.712,8282
7043085,1631768127.714,8283
7043086,1631768127.716,8285
7043087,1631768127.718,8287
7043088,1631768127.72,8289
7043089,1631768127.722,8290
7043090,1631768127.724,8292
7043091,1631768127.726,8293
7043092,1631768127.728,8295
7043093,1631768127.73,8296
7043094,1631768127.732,8299
7043095,1631768127.734,8301
7043096,1631768127.736,8303
7043097,1631768127.738,8304
7043098,1631768127.74,8305
7043099,1631768127.742,8306
7043100,1631768127.744,8308
7043101,1631768127.746,8310
7043102,1631768127.748,8312
7043103,1631768127.75,8313
7043104,1631768127.752,8315
7043105,1631768127.754,8317
7043106,1631768127.756,8319
7043107,1631768127.758,8321
7043108,1631768127.76,8323
7043109,1631768127.762,8325
7043110,1631768127.764,8327
7043111,1631768127.766,8329
7043112,1631768127.768,8331
7043113,1631768127.77,8333
7043114,1631768127.772,8334
7043115,1631768127.774,8336
7043116,1631768127.776,8337
7043117,1631768127.778,8338
7043118,1631768127.78,8339
7043119,1631768127.782,8340
7043120,1631768127.784,8342
7043121,1631768127.786,8342
7043122,1631768127.788,8343
7043123,1631768127.79,8344
7043124,1631768127.792,8343
7043125,1631768127.794,8342
7043126,1631768127.796,8341
7043127,1631768127.798,8339
7043128,1631768127.8,8336
7043129,1631768127.802,8334
7043130,1631768127.804,8331
7043131,1631768127.806,8327
7043132,1631768127.808,8324
7043133,1631768127.81,8320
7043134,1631768127.812,8317
7043135,1631768127.814,8312
7043136,1631768127.816,8307
7043137,1631768127.818,8302
7043138,1631768127.82,8296
7043139,1631768127.822,8291
7043140,1631768127.824,8285
7043141,1631768127.826,8279
7043142,1631768127.828,8273
7043143,1631768127.83,8266
7043144,1631768127.832,8259
7043145,1631768127.834,8252
7043146,1631768127.836,8245
7043147,1631768127.838,8237
7043148,1631768127.84,8230
7043149,1631768127.842,8223
7043150,1631768127.844,8216
7043151,1631768127.846,8210
7043152,1631768127.848,8203
7043153,1631768127.85,8197
7043154,1631768127.852,8192
7043155,1631768127.854,8187
7043156,1631768127.856,8182
7043157,1631768127.858,8178
7043158,1631768127.86,8174
7043159,1631768127.862,8171
7043160,1631768127.864,8169
7043161,1631768127.866,8167
7043162,1631768127.868,8165
7043163,1631768127.87,8164
7043164,1631768127.872,8163
7043165,1631768127.874,8162
7043166,1631768127.876,8161
7043167,1631768127.878,8160
7043168,1631768127.88,8159
7043169,1631768127.882,8159
7043170,1631768127.884,8159
7043171,1631768127.886,8159
7043172,1631768127.888,8159
7043173,1631768127.89,8159
7043174,1631768127.892,8159
7043175,1631768127.894,8158
7043176,1631768127.896,8158
7043177,1631768127.898,8158
7043178,1631768127.9,8158
7043179,1631768127.902,8159
7043180,1631768127.904,8159
7043181,1631768127.906,8159
7043182,1631768127.908,8159
7043183,1631768127.91,8159
7043184,1631768127.912,8160
7043185,1631768127.914,8160
7043186,1631768127.916,8160
7043187,1631768127.918,8160
7043188,1631768127.92,8160
7043189,1631768127.922,8160
7043190,1631768127.924,8159
7043191,1631768127.926,8158
7043192,1631768127.928,8157
7043193,1631768127.93,8156
7043194,1631768127.932,8157
7043195,1631768127.934,8160
7043196,1631768127.936,8165
7043197,1631768127.938,8169
7043198,1631768127.94,8173
7043199,1631768127.942,8178
7043200,1631768127.944,8183
7043201,1631768127.946,8189
7043202,1631768127.948,8193
7043203,1631768127.95,8196
7043204,1631768127.952,8198
7043205,1631768127.954,8199
7043206,1631768127.956,8200
7043207,1631768127.958,8199
7043208,1631768127.96,8196
7043209,1631768127.962,8192
7043210,1631768127.964,8189
7043211,1631768127.966,8186
7043212,1631768127.968,8183
7043213,1631768127.97,8179
7043214,1631768127.972,8174
7043215,1631768127.974,8168
7043216,1631768127.976,8162
7043217,1631768127.978,8157
7043218,1631768127.98,8153
7043219,1631768127.982,8151
7043220,1631768127.984,8151
7043221,1631768127.986,8151
7043222,1631768127.988,8152
7043223,1631768127.99,8153
7043224,1631768127.992,8153
7043225,1631768127.994,8154
7043226,1631768127.996,8154
7043227,1631768127.998,8154
7043228,1631768128.0,8154
7043229,1631768128.002,8154
7043230,1631768128.004,8154
7043231,1631768128.006,8154
7043232,1631768128.008,8154
7043233,1631768128.01,8153
7043234,1631768128.012,8153
7043235,1631768128.014,8154
7043236,1631768128.016,8154
7043237,1631768128.018,8154
7043238,1631768128.02,8154
7043239,1631768128.022,8154
7043240,1631768128.024,8153
7043241,1631768128.026,8152
7043242,1631768128.028,8148
7043243,1631768128.03,8139
7043244,1631768128.032,8121
7043245,1631768128.034,8097
7043246,1631768128.036,8075
7043247,1631768128.038,8061
7043248,1631768128.04,8059
7043249,1631768128.042,8065
7043250,1631768128.044,8074
7043251,1631768128.046,8083
7043252,1631768128.048,8096
7043253,1631768128.05,8121
7043254,1631768128.052,8161
7043255,1631768128.054,8208
7043256,1631768128.056,8242
7043257,1631768128.058,8251
7043258,1631768128.06,8236
7043259,1631768128.062,8207
7043260,1631768128.064,8171
7043261,1631768128.066,8131
7043262,1631768128.068,8090
7043263,1631768128.07,8053
7043264,1631768128.072,8023
7043265,1631768128.074,8003
7043266,1631768128.076,7990
7043267,1631768128.078,7978
7043268,1631768128.08,7964
7043269,1631768128.082,7946
7043270,1631768128.084,7928
7043271,1631768128.086,7913
7043272,1631768128.088,7904
7043273,1631768128.09,7899
7043274,1631768128.092,7900
7043275,1631768128.094,7902
7043276,1631768128.096,7904
7043277,1631768128.098,7900
7043278,1631768128.1,7892
7043279,1631768128.102,7884
7043280,1631768128.104,7879
7043281,1631768128.106,7880
7043282,1631768128.108,7882
7043283,1631768128.11,7881
7043284,1631768128.112,7876
7043285,1631768128.114,7873
7043286,1631768128.116,7876
7043287,1631768128.118,7883
7043288,1631768128.12,7897
7043289,1631768128.122,7921
7043290,1631768128.124,7951
7043291,1631768128.126,7983
7043292,1631768128.128,8015
7043293,1631768128.13,8054
7043294,1631768128.132,8104
7043295,1631768128.134,8156
7043296,1631768128.136,8200
7043297,1631768128.138,8230
7043298,1631768128.14,8251
7043299,1631768128.142,8267
7043300,1631768128.144,8277
7043301,1631768128.146,8280
7043302,1631768128.148,8279
7043303,1631768128.15,8275
7043304,1631768128.152,8272
7043305,1631768128.154,8269
7043306,1631768128.156,8268
7043307,1631768128.158,8267
7043308,1631768128.16,8265
7043309,1631768128.162,8265
7043310,1631768128.164,8264
7043311,1631768128.166,8265
7043312,1631768128.168,8265
7043313,1631768128.17,8265
7043314,1631768128.172,8265
7043315,1631768128.174,8265
7043316,1631768128.176,8265
7043317,1631768128.178,8265
7043318,1631768128.18,8266
7043319,1631768128.182,8267
7043320,1631768128.184,8267
7043321,1631768128.186,8266
7043322,1631768128.188,8266
7043323,1631768128.19,8266
7043324,1631768128.192,8267
7043325,1631768128.194,8267
7043326,1631768128.196,8267
7043327,1631768128.198,8267
7043328,1631768128.2,8268
7043329,1631768128.202,8269
7043330,1631768128.204,8271
7043331,1631768128.206,8272
7043332,1631768128.208,8274
7043333,1631768128.21,8275
7043334,1631768128.212,8275
7043335,1631768128.214,8275
7043336,1631768128.216,8275
7043337,1631768128.218,8277
7043338,1631768128.22,8279
7043339,1631768128.222,8281
7043340,1631768128.224,8283
7043341,1631768128.226,8285
7043342,1631768128.228,8287
7043343,1631768128.23,8288
7043344,1631768128.232,8290
7043345,1631768128.234,8291
7043346,1631768128.236,8292
7043347,1631768128.238,8293
7043348,1631768128.24,8294
7043349,1631768128.242,8295
7043350,1631768128.244,8297
7043351,1631768128.246,8299
7043352,1631768128.248,8301
7043353,1631768128.25,8303
7043354,1631768128.252,8305
7043355,1631768128.254,8307
7043356,1631768128.256,8309
7043357,1631768128.258,8311
7043358,1631768128.26,8313
7043359,1631768128.262,8314
7043360,1631768128.264,8315
7043361,1631768128.266,8316
7043362,1631768128.268,8318
7043363,1631768128.27,8319
7043364,1631768128.272,8322
7043365,1631768128.274,8325
7043366,1631768128.276,8327
7043367,1631768128.278,8328
7043368,1631768128.28,8329
7043369,1631768128.282,8330
7043370,1631768128.284,8331
7043371,1631768128.286,8332
7043372,1631768128.288,8332
7043373,1631768128.29,8333
7043374,1631768128.292,8333
7043375,1631768128.294,8334
7043376,1631768128.296,8333
7043377,1631768128.298,8332
7043378,1631768128.3,8330
7043379,1631768128.302,8327
7043380,1631768128.304,8325
7043381,1631768128.306,8322
7043382,1631768128.308,8318
7043383,1631768128.31,8314
7043384,1631768128.312,8310
7043385,1631768128.314,8305
7043386,1631768128.316,8300
7043387,1631768128.318,8296
7043388,1631768128.32,8292
7043389,1631768128.322,8288
7043390,1631768128.324,8283
7043391,1631768128.326,8278
7043392,1631768128.328,8272
7043393,1631768128.33,8266
7043394,1631768128.332,8259
7043395,1631768128.334,8252
7043396,1631768128.336,8245
7043397,1631768128.338,8237
7043398,1631768128.34,8230
7043399,1631768128.342,8222
7043400,1631768128.344,8215
7043401,1631768128.346,8208
7043402,1631768128.348,8201
7043403,1631768128.35,8195
7043404,1631768128.352,8188
7043405,1631768128.354,8182
7043406,1631768128.356,8176
7043407,1631768128.358,8171
7043408,1631768128.36,8166
7043409,1631768128.362,8162
7043410,1631768128.364,8158
7043411,1631768128.366,8155
7043412,1631768128.368,8153
7043413,1631768128.37,8151
7043414,1631768128.372,8149
7043415,1631768128.374,8148
7043416,1631768128.376,8146
7043417,1631768128.378,8145
7043418,1631768128.38,8144
7043419,1631768128.382,8143
7043420,1631768128.384,8142
7043421,1631768128.386,8142
7043422,1631768128.388,8142
7043423,1631768128.39,8142
7043424,1631768128.392,8143
7043425,1631768128.394,8144
7043426,1631768128.396,8144
7043427,1631768128.398,8144
7043428,1631768128.4,8145
7043429,1631768128.402,8145
7043430,1631768128.404,8145
7043431,1631768128.406,8146
7043432,1631768128.408,8146
7043433,1631768128.41,8147
7043434,1631768128.412,8147
7043435,1631768128.414,8148
7043436,1631768128.416,8149
7043437,1631768128.418,8150
7043438,1631768128.42,8150
7043439,1631768128.422,8151
7043440,1631768128.424,8151
7043441,1631768128.426,8151
7043442,1631768128.428,8152
7043443,1631768128.43,8152
7043444,1631768128.432,8153
7043445,1631768128.434,8153
7043446,1631768128.436,8152
7043447,1631768128.438,8152
7043448,1631768128.44,8152
7043449,1631768128.442,8155
7043450,1631768128.444,8159
7043451,1631768128.446,8165
7043452,1631768128.448,8170
7043453,1631768128.45,8175
7043454,1631768128.452,8180
7043455,1631768128.454,8184
7043456,1631768128.456,8189
7043457,1631768128.458,8192
7043458,1631768128.46,8194
7043459,1631768128.462,8196
7043460,1631768128.464,8198
7043461,1631768128.466,8198
7043462,1631768128.468,8196
7043463,1631768128.47,8193
7043464,1631768128.472,8190
7043465,1631768128.474,8187
7043466,1631768128.476,8185
7043467,1631768128.478,8182
7043468,1631768128.48,8178
7043469,1631768128.482,8172
7043470,1631768128.484,8166
7043471,1631768128.486,8161
7043472,1631768128.488,8157
7043473,1631768128.49,8155
7043474,1631768128.492,8153
7043475,1631768128.494,8154
7043476,1631768128.496,8155
7043477,1631768128.498,8156
7043478,1631768128.5,8156
7043479,1631768128.502,8157
7043480,1631768128.504,8158
7043481,1631768128.506,8158
7043482,1631768128.508,8159
7043483,1631768128.51,8159
7043484,1631768128.512,8160
7043485,1631768128.514,8160
7043486,1631768128.516,8161
7043487,1631768128.518,8161
7043488,1631768128.52,8161
7043489,1631768128.522,8161
7043490,1631768128.524,8162
7043491,1631768128.526,8162
7043492,1631768128.528,8163
7043493,1631768128.53,8164
7043494,1631768128.532,8164
7043495,1631768128.534,8163
7043496,1631768128.536,8159
7043497,1631768128.538,8151
7043498,1631768128.54,8136
7043499,1631768128.542,8115
7043500,1631768128.544,8092
7043501,1631768128.546,8076
7043502,1631768128.548,8071
7043503,1631768128.55,8076
7043504,1631768128.552,8085
7043505,1631768128.554,8094
7043506,1631768128.556,8107
7043507,1631768128.558,8133
7043508,1631768128.56,8175
7043509,1631768128.562,8220
7043510,1631768128.564,8254
7043511,1631768128.566,8265
7043512,1631768128.568,8253
7043513,1631768128.57,8223
7043514,1631768128.572,8184
7043515,1631768128.574,8141
7043516,1631768128.576,8099
7043517,1631768128.578,8063
7043518,1631768128.58,8035
7043519,1631768128.582,8019
7043520,1631768128.584,8010
7043521,1631768128.586,8002
7043522,1631768128.588,7991
7043523,1631768128.59,7976
7043524,1631768128.592,7958
7043525,1631768128.594,7940
7043526,1631768128.596,7927
7043527,1631768128.598,7918
7043528,1631768128.6,7915
7043529,1631768128.602,7915
7043530,1631768128.604,7915
7043531,1631768128.606,7913
7043532,1631768128.608,7906
7043533,1631768128.61,7896
7043534,1631768128.612,7889
7043535,1631768128.614,7887
7043536,1631768128.616,7889
7043537,1631768128.618,7890
7043538,1631768128.62,7887
7043539,1631768128.622,7884
7043540,1631768128.624,7884
7043541,1631768128.626,7888
7043542,1631768128.628,7897
7043543,1631768128.63,7913
7043544,1631768128.632,7941
7043545,1631768128.634,7975
7043546,1631768128.636,8009
7043547,1631768128.638,8045
7043548,1631768128.64,8088
7043549,1631768128.642,8142
7043550,1631768128.644,8195
7043551,1631768128.646,8236
7043552,1631768128.648,8263
7043553,1631768128.65,8281
7043554,1631768128.652,8294
7043555,1631768128.654,8302
7043556,1631768128.656,8304
7043557,1631768128.658,8301
7043558,1631768128.66,8298
7043559,1631768128.662,8294
7043560,1631768128.664,8291
7043561,1631768128.666,8290
7043562,1631768128.668,8290
7043563,1631768128.67,8289
7043564,1631768128.672,8289
7043565,1631768128.674,8289
7043566,1631768128.676,8289
7043567,1631768128.678,8289
7043568,1631768128.68,8289
7043569,1631768128.682,8289
7043570,1631768128.684,8289
7043571,1631768128.686,8289
7043572,1631768128.688,8290
7043573,1631768128.69,8290
7043574,1631768128.692,8290
7043575,1631768128.694,8290
7043576,1631768128.696,8291
7043577,1631768128.698,8291
7043578,1631768128.7,8292
7043579,1631768128.702,8293
7043580,1631768128.704,8293
7043581,1631768128.706,8294
7043582,1631768128.708,8294
7043583,1631768128.71,8295
7043584,1631768128.712,8295
7043585,1631768128.714,8296
7043586,1631768128.716,8297
7043587,1631768128.718,8298
7043588,1631768128.72,8299
7043589,1631768128.722,8301
7043590,1631768128.724,8302
7043591,1631768128.726,8303
7043592,1631768128.728,8305
7043593,1631768128.73,8306
7043594,1631768128.732,8307
7043595,1631768128.734,8309
7043596,1631768128.736,8310
7043597,1631768128.738,8311
7043598,1631768128.74,8312
7043599,1631768128.742,8314
7043600,1631768128.744,8316
7043601,1631768128.746,8317
7043602,1631768128.748,8319
7043603,1631768128.75,8321
7043604,1631768128.752,8323
7043605,1631768128.754,8325
7043606,1631768128.756,8327
7043607,1631768128.758,8329
7043608,1631768128.76,8330
7043609,1631768128.762,8332
7043610,1631768128.764,8334
7043611,1631768128.766,8336
7043612,1631768128.768,8338
7043613,1631768128.77,8340
7043614,1631768128.772,8342
7043615,1631768128.774,8344
7043616,1631768128.776,8345
7043617,1631768128.778,8347
7043618,1631768128.78,8349
7043619,1631768128.782,8350
7043620,1631768128.784,8352
7043621,1631768128.786,8354
7043622,1631768128.788,8355
7043623,1631768128.79,8357
7043624,1631768128.792,8358
7043625,1631768128.794,8359
7043626,1631768128.796,8359
7043627,1631768128.798,8360
7043628,1631768128.8,8360
7043629,1631768128.802,8360
7043630,1631768128.804,8359
7043631,1631768128.806,8358
7043632,1631768128.808,8356
7043633,1631768128.81,8354
7043634,1631768128.812,8351
7043635,1631768128.814,8348
7043636,1631768128.816,8346
7043637,1631768128.818,8343
7043638,1631768128.82,8339
7043639,1631768128.822,8335
7043640,1631768128.824,8331
7043641,1631768128.826,8327
7043642,1631768128.828,8322
7043643,1631768128.83,8316
7043644,1631768128.832,8311
7043645,1631768128.834,8305
7043646,1631768128.836,8298
7043647,1631768128.838,8292
7043648,1631768128.84,8285
7043649,1631768128.842,8278
7043650,1631768128.844,8272
7043651,1631768128.846,8264
7043652,1631768128.848,8257
7043653,1631768128.85,8249
7043654,1631768128.852,8242
7043655,1631768128.854,8234
7043656,1631768128.856,8227
7043657,1631768128.858,8220
7043658,1631768128.86,8214
7043659,1631768128.862,8207
7043660,1631768128.864,8202
7043661,1631768128.866,8197
7043662,1631768128.868,8193
7043663,1631768128.87,8189
7043664,1631768128.872,8186
7043665,1631768128.874,8182
7043666,1631768128.876,8180
7043667,1631768128.878,8177
7043668,1631768128.88,8175
7043669,1631768128.882,8173
7043670,1631768128.884,8172
7043671,1631768128.886,8171
7043672,1631768128.888,8170
7043673,1631768128.89,8170
7043674,1631768128.892,8170
7043675,1631768128.894,8169
7043676,1631768128.896,8169
7043677,1631768128.898,8168
7043678,1631768128.9,8168
7043679,1631768128.902,8169
7043680,1631768128.904,8169
7043681,1631768128.906,8168
7043682,1631768128.908,8169
7043683,1631768128.91,8169
7043684,1631768128.912,8169
7043685,1631768128.914,8169
7043686,1631768128.916,8169
7043687,1631768128.918,8170
7043688,1631768128.92,8170
7043689,1631768128.922,8171
7043690,1631768128.924,8171
7043691,1631768128.926,8171
7043692,1631768128.928,8172
7043693,1631768128.93,8172
7043694,1631768128.932,8173
7043695,1631768128.934,8173
7043696,1631768128.936,8174
7043697,1631768128.938,8174
7043698,1631768128.94,8174
7043699,1631768128.942,8174
7043700,1631768128.944,8175
7043701,1631768128.946,8175
7043702,1631768128.948,8175
7043703,1631768128.95,8176
7043704,1631768128.952,8176
7043705,1631768128.954,8176
7043706,1631768128.956,8175
7043707,1631768128.958,8175
7043708,1631768128.96,8174
7043709,1631768128.962,8173
7043710,1631768128.964,8170
7043711,1631768128.966,8167
7043712,1631768128.968,8164
7043713,1631768128.97,8163
7043714,1631768128.972,8164
7043715,1631768128.974,8168
7043716,1631768128.976,8174
7043717,1631768128.978,8181
7043718,1631768128.98,8188
7043719,1631768128.982,8196
7043720,1631768128.984,8204
7043721,1631768128.986,8207
7043722,1631768128.988,8208
7043723,1631768128.99,8205
7043724,1631768128.992,8201
7043725,1631768128.994,8196
7043726,1631768128.996,8192
7043727,1631768128.998,8189
7043728,1631768129.0,8188
7043729,1631768129.002,8188
7043730,1631768129.004,8187
7043731,1631768129.006,8185
7043732,1631768129.008,8183
7043733,1631768129.01,8179
7043734,1631768129.012,8175
7043735,1631768129.014,8170
7043736,1631768129.016,8166
7043737,1631768129.018,8164
7043738,1631768129.02,8164
7043739,1631768129.022,8164
7043740,1631768129.024,8166
7043741,1631768129.026,8167
7043742,1631768129.028,8167
7043743,1631768129.03,8167
7043744,1631768129.032,8167
7043745,1631768129.034,8166
7043746,1631768129.036,8166
7043747,1631768129.038,8167
7043748,1631768129.04,8167
7043749,1631768129.042,8167
7043750,1631768129.044,8167
7043751,1631768129.046,8168
7043752,1631768129.048,8168
7043753,1631768129.05,8168
7043754,1631768129.052,8168
7043755,1631768129.054,8167
7043756,1631768129.056,8168
7043757,1631768129.058,8168
7043758,1631768129.06,8167
7043759,1631768129.062,8167
7043760,1631768129.064,8167
7043761,1631768129.066,8163
7043762,1631768129.068,8152
7043763,1631768129.07,8133
7043764,1631768129.072,8109
7043765,1631768129.074,8087
7043766,1631768129.076,8075
7043767,1631768129.078,8075
7043768,1631768129.08,8083
7043769,1631768129.082,8092
7043770,1631768129.084,8100
7043771,1631768129.086,8113
7043772,1631768129.088,8140
7043773,1631768129.09,8183
7043774,1631768129.092,8230
7043775,1631768129.094,8262
7043776,1631768129.096,8268
7043777,1631768129.098,8250
7043778,1631768129.1,8217
7043779,1631768129.102,8179
7043780,1631768129.104,8140
7043781,1631768129.106,8101
7043782,1631768129.108,8067
7043783,1631768129.11,8040
7043784,1631768129.112,8021
7043785,1631768129.114,8007
7043786,1631768129.116,7993
7043787,1631768129.118,7977
7043788,1631768129.12,7958
7043789,1631768129.122,7940
7043790,1631768129.124,7926
7043791,1631768129.126,7918
7043792,1631768129.128,7915
7043793,1631768129.13,7915
7043794,1631768129.132,7917
7043795,1631768129.134,7916
7043796,1631768129.136,7910
7043797,1631768129.138,7901
7043798,1631768129.14,7893
7043799,1631768129.142,7891
7043800,1631768129.144,7893
7043801,1631768129.146,7896
7043802,1631768129.148,7896
7043803,1631768129.15,7892
7043804,1631768129.152,7891
7043805,1631768129.154,7895
7043806,1631768129.156,7901
7043807,1631768129.158,7915
7043808,1631768129.16,7939
7043809,1631768129.162,7971
7043810,1631768129.164,8004
7043811,1631768129.166,8039
7043812,1631768129.168,8080
7043813,1631768129.17,8127
7043814,1631768129.172,8176
7043815,1631768129.174,8217
7043816,1631768129.176,8246
7043817,1631768129.178,8266
7043818,1631768129.18,8281
7043819,1631768129.182,8291
7043820,1631768129.184,8294
7043821,1631768129.186,8292
7043822,1631768129.188,8289
7043823,1631768129.19,8285
7043824,1631768129.192,8282
7043825,1631768129.194,8280
7043826,1631768129.196,8279
7043827,1631768129.198,8279
7043828,1631768129.2,8278
7043829,1631768129.202,8278
7043830,1631768129.204,8278
7043831,1631768129.206,8277
7043832,1631768129.208,8277
7043833,1631768129.21,8277
7043834,1631768129.212,8277
7043835,1631768129.214,8277
7043836,1631768129.216,8277
7043837,1631768129.218,8277
7043838,1631768129.22,8277
7043839,1631768129.222,8277
7043840,1631768129.224,8278
7043841,1631768129.226,8278
7043842,1631768129.228,8278
7043843,1631768129.23,8279
7043844,1631768129.232,8279
7043845,1631768129.234,8279
7043846,1631768129.236,8280
7043847,1631768129.238,8281
7043848,1631768129.24,8282
7043849,1631768129.242,8282
7043850,1631768129.244,8283
7043851,1631768129.246,8284
7043852,1631768129.248,8285
7043853,1631768129.25,8286
7043854,1631768129.252,8288
7043855,1631768129.254,8289
7043856,1631768129.256,8290
7043857,1631768129.258,8291
7043858,1631768129.26,8293
7043859,1631768129.262,8294
7043860,1631768129.264,8295
7043861,1631768129.266,8296
7043862,1631768129.268,8298
7043863,1631768129.27,8299
7043864,1631768129.272,8301
7043865,1631768129.274,8303
7043866,1631768129.276,8305
7043867,1631768129.278,8306
7043868,1631768129.28,8307
7043869,1631768129.282,8308
7043870,1631768129.284,8310
7043871,1631768129.286,8312
7043872,1631768129.288,8314
7043873,1631768129.29,8316
7043874,1631768129.292,8318
7043875,1631768129.294,8320
7043876,1631768129.296,8322
7043877,1631768129.298,8324
7043878,1631768129.3,8325
7043879,1631768129.302,8327
7043880,1631768129.304,8328
7043881,1631768129.306,8330
7043882,1631768129.308,8332
7043883,1631768129.31,8334
7043884,1631768129.312,8336
7043885,1631768129.314,8338
7043886,1631768129.316,8339
7043887,1631768129.318,8341
7043888,1631768129.32,8343
7043889,1631768129.322,8344
7043890,1631768129.324,8344
7043891,1631768129.326,8345
7043892,1631768129.328,8345
7043893,1631768129.33,8345
7043894,1631768129.332,8345
7043895,1631768129.334,8345
7043896,1631768129.336,8344
7043897,1631768129.338,8343
7043898,1631768129.34,8342
7043899,1631768129.342,8339
7043900,1631768129.344,8336
7043901,1631768129.346,8333
7043902,1631768129.348,8330
7043903,1631768129.35,8326
7043904,1631768129.352,8321
7043905,1631768129.354,8317
7043906,1631768129.356,8312
7043907,1631768129.358,8307
7043908,1631768129.36,8302
7043909,1631768129.362,8297
7043910,1631768129.364,8291
7043911,1631768129.366,8285
7043912,1631768129.368,8279
7043913,1631768129.37,8273
7043914,1631768129.372,8266
7043915,1631768129.374,8259
7043916,1631768129.376,8251
7043917,1631768129.378,8244
7043918,1631768129.38,8236
7043919,1631768129.382,8229
7043920,1631768129.384,8221
7043921,1631768129.386,8213
7043922,1631768129.388,8206
7043923,1631768129.39,8199
7043924,1631768129.392,8192
7043925,1631768129.394,8187
7043926,1631768129.396,8182
7043927,1631768129.398,8177
7043928,1631768129.4,8174
7043929,1631768129.402,8170
7043930,1631768129.404,8167
7043931,1631768129.406,8165
7043932,1631768129.408,8162
7043933,1631768129.41,8160
7043934,1631768129.412,8158
7043935,1631768129.414,8157
7043936,1631768129.416,8155
7043937,1631768129.418,8153
7043938,1631768129.42,8151
7043939,1631768129.422,8150
7043940,1631768129.424,8149
7043941,1631768129.426,8149
7043942,1631768129.428,8150
7043943,1631768129.43,8150
7043944,1631768129.432,8151
7043945,1631768129.434,8151
7043946,1631768129.436,8151
7043947,1631768129.438,8151
7043948,1631768129.44,8150
7043949,1631768129.442,8149
7043950,1631768129.444,8149
7043951,1631768129.446,8150
7043952,1631768129.448,8150
7043953,1631768129.45,8150
7043954,1631768129.452,8151
7043955,1631768129.454,8151
7043956,1631768129.456,8152
7043957,1631768129.458,8152
7043958,1631768129.46,8152
7043959,1631768129.462,8153
7043960,1631768129.464,8152
7043961,1631768129.466,8151
7043962,1631768129.468,8150
7043963,1631768129.47,8149
7043964,1631768129.472,8149
7043965,1631768129.474,8152
7043966,1631768129.476,8156
7043967,1631768129.478,8159
7043968,1631768129.48,8163
7043969,1631768129.482,8167
7043970,1631768129.484,8172
7043971,1631768129.486,8177
7043972,1631768129.488,8182
7043973,1631768129.49,8185
7043974,1631768129.492,8187
7043975,1631768129.494,8188
7043976,1631768129.496,8188
7043977,1631768129.498,8186
7043978,1631768129.5,8183
7043979,1631768129.502,8180
7043980,1631768129.504,8177
7043981,1631768129.506,8174
7043982,1631768129.508,8172
7043983,1631768129.51,8167
7043984,1631768129.512,8162
7043985,1631768129.514,8156
7043986,1631768129.516,8150
7043987,1631768129.518,8145
7043988,1631768129.52,8141
7043989,1631768129.522,8140
7043990,1631768129.524,8139
7043991,1631768129.526,8140
7043992,1631768129.528,8140
7043993,1631768129.53,8141
7043994,1631768129.532,8142
7043995,1631768129.534,8144
7043996,1631768129.536,8145
7043997,1631768129.538,8145
7043998,1631768129.54,8145
7043999,1631768129.542,8144
7044000,1631768129.544,8144
7044001,1631768129.546,8143
7044002,1631768129.548,8143
7044003,1631768129.55,8142
7044004,1631768129.552,8142
7044005,1631768129.554,8142
7044006,1631768129.556,8142
7044007,1631768129.558,8143
7044008,1631768129.56,8143
7044009,1631768129.562,8144
7044010,1631768129.564,8144
7044011,1631768129.566,8143
7044012,1631768129.568,8139
7044013,1631768129.57,8128
7044014,1631768129.572,8108
7044015,1631768129.574,8083
7044016,1631768129.576,8062
7044017,1631768129.578,8052
7044018,1631768129.58,8053
7044019,1631768129.582,8061
7044020,1631768129.584,8071
7044021,1631768129.586,8080
7044022,1631768129.588,8095
7044023,1631768129.59,8124
7044024,1631768129.592,8165
7044025,1631768129.594,8205
7044026,1631768129.596,8228
7044027,1631768129.598,8226
7044028,1631768129.6,8203
7044029,1631768129.602,8167
7044030,1631768129.604,8128
7044031,1631768129.606,8087
7044032,1631768129.608,8049
7044033,1631768129.61,8017
7044034,1631768129.612,7995
7044035,1631768129.614,7982
7044036,1631768129.616,7975
7044037,1631768129.618,7966
7044038,1631768129.62,7953
7044039,1631768129.622,7936
7044040,1631768129.624,7918
7044041,1631768129.626,7902
7044042,1631768129.628,7892
7044043,1631768129.63,7888
7044044,1631768129.632,7888
7044045,1631768129.634,7890
7044046,1631768129.636,7890
7044047,1631768129.638,7885
7044048,1631768129.64,7875
7044049,1631768129.642,7865
7044050,1631768129.644,7860
7044051,1631768129.646,7859
7044052,1631768129.648,7861
7044053,1631768129.65,7861
7044054,1631768129.652,7855
7044055,1631768129.654,7849
7044056,1631768129.656,7846
7044057,1631768129.658,7850
7044058,1631768129.66,7863
7044059,1631768129.662,7886
7044060,1631768129.664,7919
7044061,1631768129.666,7954
7044062,1631768129.668,7990
7044063,1631768129.67,8030
7044064,1631768129.672,8080
7044065,1631768129.674,8136
7044066,1631768129.676,8186
7044067,1631768129.678,8221
7044068,1631768129.68,8244
7044069,1631768129.682,8261
7044070,1631768129.684,8272
7044071,1631768129.686,8276
7044072,1631768129.688,8274
7044073,1631768129.69,8271
7044074,1631768129.692,8268
7044075,1631768129.694,8266
7044076,1631768129.696,8264
7044077,1631768129.698,8263
7044078,1631768129.7,8263
7044079,1631768129.702,8263
7044080,1631768129.704,8262
7044081,1631768129.706,8262
7044082,1631768129.708,8261
7044083,1631768129.71,8260
7044084,1631768129.712,8260
7044085,1631768129.714,8261
7044086,1631768129.716,8261
7044087,1631768129.718,8262
7044088,1631768129.72,8262
7044089,1631768129.722,8263
7044090,1631768129.724,8263
7044091,1631768129.726,8264
7044092,1631768129.728,8265
7044093,1631768129.73,8266
7044094,1631768129.732,8266
7044095,1631768129.734,8267
7044096,1631768129.736,8268
7044097,1631768129.738,8268
7044098,1631768129.74,8269
7044099,1631768129.742,8270
7044100,1631768129.744,8271
7044101,1631768129.746,8272
7044102,1631768129.748,8273
7044103,1631768129.75,8274
7044104,1631768129.752,8275
7044105,1631768129.754,8276
7044106,1631768129.756,8277
7044107,1631768129.758,8279
7044108,1631768129.76,8280
7044109,1631768129.762,8282
7044110,1631768129.764,8283
7044111,1631768129.766,8285
7044112,1631768129.768,8287
7044113,1631768129.77,8288
7044114,1631768129.772,8290
7044115,1631768129.774,8293
7044116,1631768129.776,8295
7044117,1631768129.778,8296
7044118,1631768129.78,8298
7044119,1631768129.782,8301
7044120,1631768129.784,8303
7044121,1631768129.786,8305
7044122,1631768129.788,8307
7044123,1631768129.79,8309
7044124,1631768129.792,8312
7044125,1631768129.794,8315
7044126,1631768129.796,8317
7044127,1631768129.798,8319
7044128,1631768129.8,8321
7044129,1631768129.802,8323
7044130,1631768129.804,8325
7044131,1631768129.806,8326
7044132,1631768129.808,8328
7044133,1631768129.81,8330
7044134,1631768129.812,8333
7044135,1631768129.814,8335
7044136,1631768129.816,8337
7044137,1631768129.818,8339
7044138,1631768129.82,8341
7044139,1631768129.822,8342
7044140,1631768129.824,8343
7044141,1631768129.826,8344
7044142,1631768129.828,8345
7044143,1631768129.83,8345
7044144,1631768129.832,8345
7044145,1631768129.834,8345
7044146,1631768129.836,8343
7044147,1631768129.838,8342
7044148,1631768129.84,8340
7044149,1631768129.842,8338
7044150,1631768129.844,8335
7044151,1631768129.846,8332
7044152,1631768129.848,8328
7044153,1631768129.85,8325
7044154,1631768129.852,8321
7044155,1631768129.854,8317
7044156,1631768129.856,8313
7044157,1631768129.858,8308
7044158,1631768129.86,8303
7044159,1631768129.862,8298
7044160,1631768129.864,8293
7044161,1631768129.866,8288
7044162,1631768129.868,8282
7044163,1631768129.87,8276
7044164,1631768129.872,8270
7044165,1631768129.874,8263
7044166,1631768129.876,8256
7044167,1631768129.878,8248
7044168,1631768129.88,8241
7044169,1631768129.882,8233
7044170,1631768129.884,8226
7044171,1631768129.886,8219
7044172,1631768129.888,8213
7044173,1631768129.89,8206
7044174,1631768129.892,8200
7044175,1631768129.894,8194
7044176,1631768129.896,8189
7044177,1631768129.898,8184
7044178,1631768129.9,8180
7044179,1631768129.902,8176
7044180,1631768129.904,8173
7044181,1631768129.906,8171
7044182,1631768129.908,8169
7044183,1631768129.91,8167
7044184,1631768129.912,8166
7044185,1631768129.914,8164
7044186,1631768129.916,8163
7044187,1631768129.918,8162
7044188,1631768129.92,8162
7044189,1631768129.922,8161
7044190,1631768129.924,8161
7044191,1631768129.926,8161
7044192,1631768129.928,8161
7044193,1631768129.93,8162
7044194,1631768129.932,8162
7044195,1631768129.934,8163
7044196,1631768129.936,8163
7044197,1631768129.938,8164
7044198,1631768129.94,8165
7044199,1631768129.942,8165
7044200,1631768129.944,8165
7044201,1631768129.946,8166
7044202,1631768129.948,8166
7044203,1631768129.95,8167
7044204,1631768129.952,8168
7044205,1631768129.954,8169
7044206,1631768129.956,8169
7044207,1631768129.958,8170
7044208,1631768129.96,8170
7044209,1631768129.962,8171
7044210,1631768129.964,8171
7044211,1631768129.966,8172
7044212,1631768129.968,8173
7044213,1631768129.97,8173
7044214,1631768129.972,8173
7044215,1631768129.974,8174
7044216,1631768129.976,8174
7044217,1631768129.978,8173
7044218,1631768129.98,8172
7044219,1631768129.982,8171
7044220,1631768129.984,8172
7044221,1631768129.986,8175
7044222,1631768129.988,8180
7044223,1631768129.99,8184
7044224,1631768129.992,8189
7044225,1631768129.994,8193
7044226,1631768129.996,8199
7044227,1631768129.998,8204
7044228,1631768130.0,8208
7044229,1631768130.002,8211
7044230,1631768130.004,8212
7044231,1631768130.006,8212
7044232,1631768130.008,8213
7044233,1631768130.01,8212
7044234,1631768130.012,8210
7044235,1631768130.014,8207
7044236,1631768130.016,8204
7044237,1631768130.018,8202
7044238,1631768130.02,8199
7044239,1631768130.022,8195
7044240,1631768130.024,8190
7044241,1631768130.026,8184
7044242,1631768130.028,8177
7044243,1631768130.03,8172
7044244,1631768130.032,8169
7044245,1631768130.034,8167
7044246,1631768130.036,8167
7044247,1631768130.038,8167
7044248,1631768130.04,8168
7044249,1631768130.042,8168
7044250,1631768130.044,8168
7044251,1631768130.046,8169
7044252,1631768130.048,8169
7044253,1631768130.05,8169
7044254,1631768130.052,8170
7044255,1631768130.054,8170
7044256,1631768130.056,8171
7044257,1631768130.058,8170
7044258,1631768130.06,8171
7044259,1631768130.062,8171
7044260,1631768130.064,8171
7044261,1631768130.066,8171
7044262,1631768130.068,8170
7044263,1631768130.07,8171
7044264,1631768130.072,8171
7044265,1631768130.074,8171
7044266,1631768130.076,8171
7044267,1631768130.078,8169
7044268,1631768130.08,8164
7044269,1631768130.082,8153
7044270,1631768130.084,8135
7044271,1631768130.086,8112
7044272,1631768130.088,8091
7044273,1631768130.09,8080
7044274,1631768130.092,8080
7044275,1631768130.094,8088
7044276,1631768130.096,8097
7044277,1631768130.098,8106
7044278,1631768130.1,8122
7044279,1631768130.102,8151
7044280,1631768130.104,8193
7044281,1631768130.106,8236
7044282,1631768130.108,8265
7044283,1631768130.11,8269
7044284,1631768130.112,8250
7044285,1631768130.114,8219
7044286,1631768130.116,8180
7044287,1631768130.118,8139
7044288,1631768130.12,8098
7044289,1631768130.122,8064
7044290,1631768130.124,8038
7044291,1631768130.126,8021
7044292,1631768130.128,8009
7044293,1631768130.13,7997
7044294,1631768130.132,7982
7044295,1631768130.134,7964
7044296,1631768130.136,7946
7044297,1631768130.138,7931
7044298,1631768130.14,7922
7044299,1631768130.142,7919
7044300,1631768130.144,7920
7044301,1631768130.146,7922
7044302,1631768130.148,7922
7044303,1631768130.15,7917
7044304,1631768130.152,7908
7044305,1631768130.154,7900
7044306,1631768130.156,7896
7044307,1631768130.158,7897
7044308,1631768130.16,7899
7044309,1631768130.162,7896
7044310,1631768130.164,7892
7044311,1631768130.166,7891
7044312,1631768130.168,7895
7044313,1631768130.17,7903
7044314,1631768130.172,7917
7044315,1631768130.174,7941
7044316,1631768130.176,7974
7044317,1631768130.178,8008
7044318,1631768130.18,8042
