,times,values
1760000,1651078722.632,8192
1760001,1651078722.634,8189
1760002,1651078722.636,8187
1760003,1651078722.638,8187
1760004,1651078722.64,8188
1760005,1651078722.642,8190
1760006,1651078722.644,8192
1760007,1651078722.646,8195
1760008,1651078722.648,8197
1760009,1651078722.65,8199
1760010,1651078722.652,8200
1760011,1651078722.654,8201
1760012,1651078722.656,8203
1760013,1651078722.658,8203
1760014,1651078722.66,8204
1760015,1651078722.662,8204
1760016,1651078722.664,8204
1760017,1651078722.666,8203
1760018,1651078722.668,8201
1760019,1651078722.67,8198
1760020,1651078722.672,8196
1760021,1651078722.674,8193
1760022,1651078722.676,8192
1760023,1651078722.678,8191
1760024,1651078722.68,8189
1760025,1651078722.682,8187
1760026,1651078722.684,8185
1760027,1651078722.686,8183
1760028,1651078722.688,8181
1760029,1651078722.69,8180
1760030,1651078722.692,8179
1760031,1651078722.694,8178
1760032,1651078722.696,8177
1760033,1651078722.698,8175
1760034,1651078722.7,8174
1760035,1651078722.702,8173
1760036,1651078722.704,8173
1760037,1651078722.706,8173
1760038,1651078722.708,8173
1760039,1651078722.71,8173
1760040,1651078722.712,8173
1760041,1651078722.714,8172
1760042,1651078722.716,8172
1760043,1651078722.718,8171
1760044,1651078722.72,8171
1760045,1651078722.722,8171
1760046,1651078722.724,8171
1760047,1651078722.726,8171
1760048,1651078722.728,8171
1760049,1651078722.73,8170
1760050,1651078722.732,8169
1760051,1651078722.734,8169
1760052,1651078722.736,8168
1760053,1651078722.738,8164
1760054,1651078722.74,8157
1760055,1651078722.742,8145
1760056,1651078722.744,8133
1760057,1651078722.746,8125
1760058,1651078722.748,8128
1760059,1651078722.75,8145
1760060,1651078722.752,8175
1760061,1651078722.754,8212
1760062,1651078722.756,8252
1760063,1651078722.758,8291
1760064,1651078722.76,8322
1760065,1651078722.762,8327
1760066,1651078722.764,8297
1760067,1651078722.766,8246
1760068,1651078722.768,8196
1760069,1651078722.77,8161
1760070,1651078722.772,8138
1760071,1651078722.774,8121
1760072,1651078722.776,8107
1760073,1651078722.778,8094
1760074,1651078722.78,8080
1760075,1651078722.782,8071
1760076,1651078722.784,8072
1760077,1651078722.786,8083
1760078,1651078722.788,8103
1760079,1651078722.79,8126
1760080,1651078722.792,8146
1760081,1651078722.794,8162
1760082,1651078722.796,8172
1760083,1651078722.798,8176
1760084,1651078722.8,8178
1760085,1651078722.802,8179
1760086,1651078722.804,8180
1760087,1651078722.806,8180
1760088,1651078722.808,8181
1760089,1651078722.81,8181
1760090,1651078722.812,8181
1760091,1651078722.814,8182
1760092,1651078722.816,8182
1760093,1651078722.818,8183
1760094,1651078722.82,8183
1760095,1651078722.822,8184
1760096,1651078722.824,8185
1760097,1651078722.826,8185
1760098,1651078722.828,8186
1760099,1651078722.83,8186
1760100,1651078722.832,8187
1760101,1651078722.834,8187
1760102,1651078722.836,8188
1760103,1651078722.838,8188
1760104,1651078722.84,8189
1760105,1651078722.842,8189
1760106,1651078722.844,8189
1760107,1651078722.846,8190
1760108,1651078722.848,8190
1760109,1651078722.85,8190
1760110,1651078722.852,8190
1760111,1651078722.854,8190
1760112,1651078722.856,8191
1760113,1651078722.858,8192
1760114,1651078722.86,8193
1760115,1651078722.862,8194
1760116,1651078722.864,8195
1760117,1651078722.866,8197
1760118,1651078722.868,8199
1760119,1651078722.87,8202
1760120,1651078722.872,8205
1760121,1651078722.874,8209
1760122,1651078722.876,8212
1760123,1651078722.878,8216
1760124,1651078722.88,8220
1760125,1651078722.882,8224
1760126,1651078722.884,8228
1760127,1651078722.886,8231
1760128,1651078722.888,8234
1760129,1651078722.89,8237
1760130,1651078722.892,8240
1760131,1651078722.894,8243
1760132,1651078722.896,8245
1760133,1651078722.898,8246
1760134,1651078722.9,8247
1760135,1651078722.902,8247
1760136,1651078722.904,8245
1760137,1651078722.906,8243
1760138,1651078722.908,8239
1760139,1651078722.91,8235
1760140,1651078722.912,8230
1760141,1651078722.914,8224
1760142,1651078722.916,8219
1760143,1651078722.918,8213
1760144,1651078722.92,8208
1760145,1651078722.922,8204
1760146,1651078722.924,8200
1760147,1651078722.926,8197
1760148,1651078722.928,8195
1760149,1651078722.93,8193
1760150,1651078722.932,8193
1760151,1651078722.934,8194
1760152,1651078722.936,8195
1760153,1651078722.938,8197
1760154,1651078722.94,8199
1760155,1651078722.942,8201
1760156,1651078722.944,8203
1760157,1651078722.946,8204
1760158,1651078722.948,8204
1760159,1651078722.95,8205
1760160,1651078722.952,8205
1760161,1651078722.954,8205
1760162,1651078722.956,8206
1760163,1651078722.958,8206
1760164,1651078722.96,8205
1760165,1651078722.962,8203
1760166,1651078722.964,8200
1760167,1651078722.966,8197
1760168,1651078722.968,8195
1760169,1651078722.97,8194
1760170,1651078722.972,8193
1760171,1651078722.974,8192
1760172,1651078722.976,8190
1760173,1651078722.978,8188
1760174,1651078722.98,8185
1760175,1651078722.982,8183
1760176,1651078722.984,8181
1760177,1651078722.986,8180
1760178,1651078722.988,8179
1760179,1651078722.99,8178
1760180,1651078722.992,8176
1760181,1651078722.994,8176
1760182,1651078722.996,8175
1760183,1651078722.998,8175
1760184,1651078723.0,8175
1760185,1651078723.002,8174
1760186,1651078723.004,8174
1760187,1651078723.006,8173
1760188,1651078723.008,8173
1760189,1651078723.01,8172
1760190,1651078723.012,8172
1760191,1651078723.014,8171
1760192,1651078723.016,8171
1760193,1651078723.018,8171
1760194,1651078723.02,8171
1760195,1651078723.022,8171
1760196,1651078723.024,8171
1760197,1651078723.026,8171
1760198,1651078723.028,8170
1760199,1651078723.03,8169
1760200,1651078723.032,8166
1760201,1651078723.034,8158
1760202,1651078723.036,8147
1760203,1651078723.038,8135
1760204,1651078723.04,8127
1760205,1651078723.042,8128
1760206,1651078723.044,8142
1760207,1651078723.046,8170
1760208,1651078723.048,8208
1760209,1651078723.05,8251
1760210,1651078723.052,8293
1760211,1651078723.054,8325
1760212,1651078723.056,8331
1760213,1651078723.058,8305
1760214,1651078723.06,8255
1760215,1651078723.062,8204
1760216,1651078723.064,8166
1760217,1651078723.066,8141
1760218,1651078723.068,8123
1760219,1651078723.07,8107
1760220,1651078723.072,8093
1760221,1651078723.074,8081
1760222,1651078723.076,8072
1760223,1651078723.078,8072
1760224,1651078723.08,8082
1760225,1651078723.082,8100
1760226,1651078723.084,8121
1760227,1651078723.086,8142
1760228,1651078723.088,8159
1760229,1651078723.09,8170
1760230,1651078723.092,8176
1760231,1651078723.094,8178
1760232,1651078723.096,8179
1760233,1651078723.098,8180
1760234,1651078723.1,8180
1760235,1651078723.102,8180
1760236,1651078723.104,8180
1760237,1651078723.106,8181
1760238,1651078723.108,8182
1760239,1651078723.11,8183
1760240,1651078723.112,8184
1760241,1651078723.114,8185
1760242,1651078723.116,8186
1760243,1651078723.118,8187
1760244,1651078723.12,8187
1760245,1651078723.122,8188
1760246,1651078723.124,8188
1760247,1651078723.126,8189
1760248,1651078723.128,8190
1760249,1651078723.13,8191
1760250,1651078723.132,8191
1760251,1651078723.134,8192
1760252,1651078723.136,8192
1760253,1651078723.138,8193
1760254,1651078723.14,8193
1760255,1651078723.142,8193
1760256,1651078723.144,8194
1760257,1651078723.146,8194
1760258,1651078723.148,8195
1760259,1651078723.15,8196
1760260,1651078723.152,8196
1760261,1651078723.154,8198
1760262,1651078723.156,8199
1760263,1651078723.158,8201
1760264,1651078723.16,8203
1760265,1651078723.162,8205
1760266,1651078723.164,8208
1760267,1651078723.166,8211
1760268,1651078723.168,8214
1760269,1651078723.17,8218
1760270,1651078723.172,8221
1760271,1651078723.174,8225
1760272,1651078723.176,8229
1760273,1651078723.178,8233
1760274,1651078723.18,8236
1760275,1651078723.182,8239
1760276,1651078723.184,8242
1760277,1651078723.186,8245
1760278,1651078723.188,8248
1760279,1651078723.19,8249
1760280,1651078723.192,8251
1760281,1651078723.194,8251
1760282,1651078723.196,8251
1760283,1651078723.198,8250
1760284,1651078723.2,8248
1760285,1651078723.202,8244
1760286,1651078723.204,8240
1760287,1651078723.206,8234
1760288,1651078723.208,8228
1760289,1651078723.21,8222
1760290,1651078723.212,8216
1760291,1651078723.214,8210
1760292,1651078723.216,8204
1760293,1651078723.218,8199
1760294,1651078723.22,8195
1760295,1651078723.222,8193
1760296,1651078723.224,8192
1760297,1651078723.226,8193
1760298,1651078723.228,8194
1760299,1651078723.23,8195
1760300,1651078723.232,8196
1760301,1651078723.234,8198
1760302,1651078723.236,8200
1760303,1651078723.238,8202
1760304,1651078723.24,8203
1760305,1651078723.242,8205
1760306,1651078723.244,8206
1760307,1651078723.246,8206
1760308,1651078723.248,8207
1760309,1651078723.25,8207
1760310,1651078723.252,8208
1760311,1651078723.254,8207
1760312,1651078723.256,8205
1760313,1651078723.258,8202
1760314,1651078723.26,8199
1760315,1651078723.262,8196
1760316,1651078723.264,8194
1760317,1651078723.266,8193
1760318,1651078723.268,8191
1760319,1651078723.27,8189
1760320,1651078723.272,8187
1760321,1651078723.274,8185
1760322,1651078723.276,8182
1760323,1651078723.278,8180
1760324,1651078723.28,8179
1760325,1651078723.282,8178
1760326,1651078723.284,8177
1760327,1651078723.286,8176
1760328,1651078723.288,8175
1760329,1651078723.29,8175
1760330,1651078723.292,8174
1760331,1651078723.294,8173
1760332,1651078723.296,8173
1760333,1651078723.298,8172
1760334,1651078723.3,8172
1760335,1651078723.302,8172
1760336,1651078723.304,8172
1760337,1651078723.306,8172
1760338,1651078723.308,8171
1760339,1651078723.31,8171
1760340,1651078723.312,8171
1760341,1651078723.314,8171
1760342,1651078723.316,8171
1760343,1651078723.318,8171
1760344,1651078723.32,8171
1760345,1651078723.322,8171
1760346,1651078723.324,8170
1760347,1651078723.326,8166
1760348,1651078723.328,8159
1760349,1651078723.33,8148
1760350,1651078723.332,8136
1760351,1651078723.334,8127
1760352,1651078723.336,8128
1760353,1651078723.338,8141
1760354,1651078723.34,8167
1760355,1651078723.342,8202
1760356,1651078723.344,8242
1760357,1651078723.346,8284
1760358,1651078723.348,8317
1760359,1651078723.35,8328
1760360,1651078723.352,8304
1760361,1651078723.354,8254
1760362,1651078723.356,8202
1760363,1651078723.358,8164
1760364,1651078723.36,8139
1760365,1651078723.362,8121
1760366,1651078723.364,8106
1760367,1651078723.366,8093
1760368,1651078723.368,8080
1760369,1651078723.37,8070
1760370,1651078723.372,8069
1760371,1651078723.374,8079
1760372,1651078723.376,8097
1760373,1651078723.378,8119
1760374,1651078723.38,8140
1760375,1651078723.382,8157
1760376,1651078723.384,8167
1760377,1651078723.386,8172
1760378,1651078723.388,8175
1760379,1651078723.39,8176
1760380,1651078723.392,8177
1760381,1651078723.394,8177
1760382,1651078723.396,8178
1760383,1651078723.398,8178
1760384,1651078723.4,8179
1760385,1651078723.402,8179
1760386,1651078723.404,8180
1760387,1651078723.406,8181
1760388,1651078723.408,8182
1760389,1651078723.41,8183
1760390,1651078723.412,8183
1760391,1651078723.414,8184
1760392,1651078723.416,8184
1760393,1651078723.418,8184
1760394,1651078723.42,8185
1760395,1651078723.422,8185
1760396,1651078723.424,8185
1760397,1651078723.426,8186
1760398,1651078723.428,8186
1760399,1651078723.43,8186
1760400,1651078723.432,8186
1760401,1651078723.434,8187
1760402,1651078723.436,8187
1760403,1651078723.438,8187
1760404,1651078723.44,8187
1760405,1651078723.442,8188
1760406,1651078723.444,8188
1760407,1651078723.446,8189
1760408,1651078723.448,8190
1760409,1651078723.45,8191
1760410,1651078723.452,8192
1760411,1651078723.454,8194
1760412,1651078723.456,8196
1760413,1651078723.458,8199
1760414,1651078723.46,8202
1760415,1651078723.462,8206
1760416,1651078723.464,8209
1760417,1651078723.466,8213
1760418,1651078723.468,8217
1760419,1651078723.47,8221
1760420,1651078723.472,8224
1760421,1651078723.474,8227
1760422,1651078723.476,8230
1760423,1651078723.478,8233
1760424,1651078723.48,8236
1760425,1651078723.482,8238
1760426,1651078723.484,8240
1760427,1651078723.486,8242
1760428,1651078723.488,8243
1760429,1651078723.49,8243
1760430,1651078723.492,8242
1760431,1651078723.494,8239
1760432,1651078723.496,8235
1760433,1651078723.498,8231
1760434,1651078723.5,8226
1760435,1651078723.502,8220
1760436,1651078723.504,8214
1760437,1651078723.506,8209
1760438,1651078723.508,8204
1760439,1651078723.51,8200
1760440,1651078723.512,8195
1760441,1651078723.514,8191
1760442,1651078723.516,8188
1760443,1651078723.518,8187
1760444,1651078723.52,8188
1760445,1651078723.522,8189
1760446,1651078723.524,8191
1760447,1651078723.526,8193
1760448,1651078723.528,8195
1760449,1651078723.53,8197
1760450,1651078723.532,8199
1760451,1651078723.534,8200
1760452,1651078723.536,8202
1760453,1651078723.538,8203
1760454,1651078723.54,8204
1760455,1651078723.542,8204
1760456,1651078723.544,8204
1760457,1651078723.546,8204
1760458,1651078723.548,8202
1760459,1651078723.55,8200
1760460,1651078723.552,8197
1760461,1651078723.554,8195
1760462,1651078723.556,8193
1760463,1651078723.558,8192
1760464,1651078723.56,8192
1760465,1651078723.562,8190
1760466,1651078723.564,8188
1760467,1651078723.566,8185
1760468,1651078723.568,8182
1760469,1651078723.57,8180
1760470,1651078723.572,8178
1760471,1651078723.574,8178
1760472,1651078723.576,8177
1760473,1651078723.578,8176
1760474,1651078723.58,8176
1760475,1651078723.582,8175
1760476,1651078723.584,8174
1760477,1651078723.586,8173
1760478,1651078723.588,8173
1760479,1651078723.59,8173
1760480,1651078723.592,8173
1760481,1651078723.594,8173
1760482,1651078723.596,8173
1760483,1651078723.598,8173
1760484,1651078723.6,8172
1760485,1651078723.602,8172
1760486,1651078723.604,8172
1760487,1651078723.606,8172
1760488,1651078723.608,8172
1760489,1651078723.61,8172
1760490,1651078723.612,8172
1760491,1651078723.614,8172
1760492,1651078723.616,8172
1760493,1651078723.618,8171
1760494,1651078723.62,8168
1760495,1651078723.622,8162
1760496,1651078723.624,8151
1760497,1651078723.626,8138
1760498,1651078723.628,8128
1760499,1651078723.63,8126
1760500,1651078723.632,8138
1760501,1651078723.634,8166
1760502,1651078723.636,8205
1760503,1651078723.638,8250
1760504,1651078723.64,8296
1760505,1651078723.642,8336
1760506,1651078723.644,8353
1760507,1651078723.646,8333
1760508,1651078723.648,8281
1760509,1651078723.65,8221
1760510,1651078723.652,8174
1760511,1651078723.654,8144
1760512,1651078723.656,8124
1760513,1651078723.658,8107
1760514,1651078723.66,8092
1760515,1651078723.662,8079
1760516,1651078723.664,8071
1760517,1651078723.666,8073
1760518,1651078723.668,8085
1760519,1651078723.67,8105
1760520,1651078723.672,8128
1760521,1651078723.674,8149
1760522,1651078723.676,8164
1760523,1651078723.678,8173
1760524,1651078723.68,8177
1760525,1651078723.682,8179
1760526,1651078723.684,8179
1760527,1651078723.686,8180
1760528,1651078723.688,8181
1760529,1651078723.69,8181
1760530,1651078723.692,8182
1760531,1651078723.694,8182
1760532,1651078723.696,8182
1760533,1651078723.698,8182
1760534,1651078723.7,8182
1760535,1651078723.702,8183
1760536,1651078723.704,8183
1760537,1651078723.706,8184
1760538,1651078723.708,8184
1760539,1651078723.71,8185
1760540,1651078723.712,8186
1760541,1651078723.714,8186
1760542,1651078723.716,8186
1760543,1651078723.718,8187
1760544,1651078723.72,8188
1760545,1651078723.722,8189
1760546,1651078723.724,8190
1760547,1651078723.726,8190
1760548,1651078723.728,8191
1760549,1651078723.73,8191
1760550,1651078723.732,8192
1760551,1651078723.734,8192
1760552,1651078723.736,8192
1760553,1651078723.738,8193
1760554,1651078723.74,8193
1760555,1651078723.742,8194
1760556,1651078723.744,8195
1760557,1651078723.746,8196
1760558,1651078723.748,8198
1760559,1651078723.75,8200
1760560,1651078723.752,8203
1760561,1651078723.754,8206
1760562,1651078723.756,8209
1760563,1651078723.758,8214
1760564,1651078723.76,8218
1760565,1651078723.762,8222
1760566,1651078723.764,8226
1760567,1651078723.766,8230
1760568,1651078723.768,8233
1760569,1651078723.77,8236
1760570,1651078723.772,8239
1760571,1651078723.774,8241
1760572,1651078723.776,8244
1760573,1651078723.778,8246
1760574,1651078723.78,8247
1760575,1651078723.782,8248
1760576,1651078723.784,8247
1760577,1651078723.786,8246
1760578,1651078723.788,8243
1760579,1651078723.79,8239
1760580,1651078723.792,8234
1760581,1651078723.794,8228
1760582,1651078723.796,8222
1760583,1651078723.798,8216
1760584,1651078723.8,8211
1760585,1651078723.802,8206
1760586,1651078723.804,8201
1760587,1651078723.806,8196
1760588,1651078723.808,8193
1760589,1651078723.81,8190
1760590,1651078723.812,8189
1760591,1651078723.814,8188
1760592,1651078723.816,8189
1760593,1651078723.818,8191
1760594,1651078723.82,8193
1760595,1651078723.822,8196
1760596,1651078723.824,8199
1760597,1651078723.826,8201
1760598,1651078723.828,8203
1760599,1651078723.83,8204
1760600,1651078723.832,8205
1760601,1651078723.834,8205
1760602,1651078723.836,8205
1760603,1651078723.838,8205
1760604,1651078723.84,8206
1760605,1651078723.842,8205
1760606,1651078723.844,8202
1760607,1651078723.846,8199
1760608,1651078723.848,8197
1760609,1651078723.85,8195
1760610,1651078723.852,8193
1760611,1651078723.854,8192
1760612,1651078723.856,8189
1760613,1651078723.858,8186
1760614,1651078723.86,8182
1760615,1651078723.862,8177
1760616,1651078723.864,8174
1760617,1651078723.866,8171
1760618,1651078723.868,8169
1760619,1651078723.87,8167
1760620,1651078723.872,8165
1760621,1651078723.874,8164
1760622,1651078723.876,8164
1760623,1651078723.878,8164
1760624,1651078723.88,8164
1760625,1651078723.882,8164
1760626,1651078723.884,8164
1760627,1651078723.886,8165
1760628,1651078723.888,8165
1760629,1651078723.89,8166
1760630,1651078723.892,8166
1760631,1651078723.894,8167
1760632,1651078723.896,8167
1760633,1651078723.898,8168
1760634,1651078723.9,8169
1760635,1651078723.902,8169
1760636,1651078723.904,8169
1760637,1651078723.906,8170
1760638,1651078723.908,8170
1760639,1651078723.91,8169
1760640,1651078723.912,8168
1760641,1651078723.914,8165
1760642,1651078723.916,8157
1760643,1651078723.918,8145
1760644,1651078723.92,8132
1760645,1651078723.922,8123
1760646,1651078723.924,8123
1760647,1651078723.926,8136
1760648,1651078723.928,8162
1760649,1651078723.93,8198
1760650,1651078723.932,8241
1760651,1651078723.934,8286
1760652,1651078723.936,8324
1760653,1651078723.938,8339
1760654,1651078723.94,8317
1760655,1651078723.942,8265
1760656,1651078723.944,8209
1760657,1651078723.946,8167
1760658,1651078723.948,8141
1760659,1651078723.95,8123
1760660,1651078723.952,8108
1760661,1651078723.954,8093
1760662,1651078723.956,8079
1760663,1651078723.958,8071
1760664,1651078723.96,8073
1760665,1651078723.962,8087
1760666,1651078723.964,8107
1760667,1651078723.966,8129
1760668,1651078723.968,8149
1760669,1651078723.97,8163
1760670,1651078723.972,8172
1760671,1651078723.974,8176
1760672,1651078723.976,8177
1760673,1651078723.978,8178
1760674,1651078723.98,8179
1760675,1651078723.982,8179
1760676,1651078723.984,8180
1760677,1651078723.986,8180
1760678,1651078723.988,8181
1760679,1651078723.99,8181
1760680,1651078723.992,8181
1760681,1651078723.994,8181
1760682,1651078723.996,8181
1760683,1651078723.998,8181
1760684,1651078724.0,8182
1760685,1651078724.002,8184
1760686,1651078724.004,8185
1760687,1651078724.006,8185
1760688,1651078724.008,8186
1760689,1651078724.01,8187
1760690,1651078724.012,8187
1760691,1651078724.014,8187
1760692,1651078724.016,8188
1760693,1651078724.018,8188
1760694,1651078724.02,8189
1760695,1651078724.022,8189
1760696,1651078724.024,8190
1760697,1651078724.026,8190
1760698,1651078724.028,8191
1760699,1651078724.03,8191
1760700,1651078724.032,8191
1760701,1651078724.034,8192
1760702,1651078724.036,8193
1760703,1651078724.038,8194
1760704,1651078724.04,8195
1760705,1651078724.042,8197
1760706,1651078724.044,8199
1760707,1651078724.046,8202
1760708,1651078724.048,8205
1760709,1651078724.05,8209
1760710,1651078724.052,8212
1760711,1651078724.054,8216
1760712,1651078724.056,8220
1760713,1651078724.058,8224
1760714,1651078724.06,8227
1760715,1651078724.062,8231
1760716,1651078724.064,8234
1760717,1651078724.066,8236
1760718,1651078724.068,8239
1760719,1651078724.07,8242
1760720,1651078724.072,8244
1760721,1651078724.074,8246
1760722,1651078724.076,8247
1760723,1651078724.078,8247
1760724,1651078724.08,8245
1760725,1651078724.082,8243
1760726,1651078724.084,8239
1760727,1651078724.086,8235
1760728,1651078724.088,8230
1760729,1651078724.09,8224
1760730,1651078724.092,8218
1760731,1651078724.094,8212
1760732,1651078724.096,8207
1760733,1651078724.098,8202
1760734,1651078724.1,8198
1760735,1651078724.102,8195
1760736,1651078724.104,8192
1760737,1651078724.106,8191
1760738,1651078724.108,8191
1760739,1651078724.11,8191
1760740,1651078724.112,8193
1760741,1651078724.114,8195
1760742,1651078724.116,8197
1760743,1651078724.118,8199
1760744,1651078724.12,8201
1760745,1651078724.122,8203
1760746,1651078724.124,8203
1760747,1651078724.126,8204
1760748,1651078724.128,8204
1760749,1651078724.13,8203
1760750,1651078724.132,8203
1760751,1651078724.134,8203
1760752,1651078724.136,8202
1760753,1651078724.138,8201
1760754,1651078724.14,8198
1760755,1651078724.142,8195
1760756,1651078724.144,8193
1760757,1651078724.146,8192
1760758,1651078724.148,8191
1760759,1651078724.15,8190
1760760,1651078724.152,8188
1760761,1651078724.154,8186
1760762,1651078724.156,8184
1760763,1651078724.158,8181
1760764,1651078724.16,8179
1760765,1651078724.162,8178
1760766,1651078724.164,8177
1760767,1651078724.166,8176
1760768,1651078724.168,8176
1760769,1651078724.17,8176
1760770,1651078724.172,8175
1760771,1651078724.174,8175
1760772,1651078724.176,8175
1760773,1651078724.178,8174
1760774,1651078724.18,8174
1760775,1651078724.182,8174
1760776,1651078724.184,8174
1760777,1651078724.186,8173
1760778,1651078724.188,8173
1760779,1651078724.19,8173
1760780,1651078724.192,8173
1760781,1651078724.194,8173
1760782,1651078724.196,8173
1760783,1651078724.198,8173
1760784,1651078724.2,8172
1760785,1651078724.202,8172
1760786,1651078724.204,8172
1760787,1651078724.206,8171
1760788,1651078724.208,8168
1760789,1651078724.21,8161
1760790,1651078724.212,8151
1760791,1651078724.214,8139
1760792,1651078724.216,8129
1760793,1651078724.218,8127
1760794,1651078724.22,8138
1760795,1651078724.222,8164
1760796,1651078724.224,8200
1760797,1651078724.226,8242
1760798,1651078724.228,8284
1760799,1651078724.23,8321
1760800,1651078724.232,8336
1760801,1651078724.234,8319
1760802,1651078724.236,8272
1760803,1651078724.238,8218
1760804,1651078724.24,8176
1760805,1651078724.242,8148
1760806,1651078724.244,8128
1760807,1651078724.246,8112
1760808,1651078724.248,8098
1760809,1651078724.25,8085
1760810,1651078724.252,8075
1760811,1651078724.254,8073
1760812,1651078724.256,8081
1760813,1651078724.258,8098
1760814,1651078724.26,8120
1760815,1651078724.262,8141
1760816,1651078724.264,8159
1760817,1651078724.266,8170
1760818,1651078724.268,8176
1760819,1651078724.27,8179
1760820,1651078724.272,8180
1760821,1651078724.274,8180
1760822,1651078724.276,8181
1760823,1651078724.278,8181
1760824,1651078724.28,8181
1760825,1651078724.282,8181
1760826,1651078724.284,8181
1760827,1651078724.286,8182
1760828,1651078724.288,8183
1760829,1651078724.29,8184
1760830,1651078724.292,8185
1760831,1651078724.294,8186
1760832,1651078724.296,8187
1760833,1651078724.298,8188
1760834,1651078724.3,8189
1760835,1651078724.302,8190
1760836,1651078724.304,8191
1760837,1651078724.306,8192
1760838,1651078724.308,8192
1760839,1651078724.31,8192
1760840,1651078724.312,8192
1760841,1651078724.314,8192
1760842,1651078724.316,8192
1760843,1651078724.318,8193
1760844,1651078724.32,8194
1760845,1651078724.322,8194
1760846,1651078724.324,8195
1760847,1651078724.326,8196
1760848,1651078724.328,8197
1760849,1651078724.33,8198
1760850,1651078724.332,8199
1760851,1651078724.334,8200
1760852,1651078724.336,8202
1760853,1651078724.338,8204
1760854,1651078724.34,8206
1760855,1651078724.342,8209
1760856,1651078724.344,8212
1760857,1651078724.346,8216
1760858,1651078724.348,8219
1760859,1651078724.35,8223
1760860,1651078724.352,8227
1760861,1651078724.354,8231
1760862,1651078724.356,8235
1760863,1651078724.358,8238
1760864,1651078724.36,8241
1760865,1651078724.362,8244
1760866,1651078724.364,8246
1760867,1651078724.366,8248
1760868,1651078724.368,8250
1760869,1651078724.37,8251
1760870,1651078724.372,8251
1760871,1651078724.374,8250
1760872,1651078724.376,8247
1760873,1651078724.378,8243
1760874,1651078724.38,8238
1760875,1651078724.382,8233
1760876,1651078724.384,8227
1760877,1651078724.386,8222
1760878,1651078724.388,8216
1760879,1651078724.39,8211
1760880,1651078724.392,8206
1760881,1651078724.394,8201
1760882,1651078724.396,8197
1760883,1651078724.398,8194
1760884,1651078724.4,8192
1760885,1651078724.402,8192
1760886,1651078724.404,8192
1760887,1651078724.406,8193
1760888,1651078724.408,8195
1760889,1651078724.41,8196
1760890,1651078724.412,8198
1760891,1651078724.414,8200
1760892,1651078724.416,8202
1760893,1651078724.418,8203
1760894,1651078724.42,8204
1760895,1651078724.422,8204
1760896,1651078724.424,8204
1760897,1651078724.426,8204
1760898,1651078724.428,8204
1760899,1651078724.43,8203
1760900,1651078724.432,8201
1760901,1651078724.434,8198
1760902,1651078724.436,8196
1760903,1651078724.438,8194
1760904,1651078724.44,8192
1760905,1651078724.442,8191
1760906,1651078724.444,8190
1760907,1651078724.446,8188
1760908,1651078724.448,8186
1760909,1651078724.45,8184
1760910,1651078724.452,8181
1760911,1651078724.454,8180
1760912,1651078724.456,8179
1760913,1651078724.458,8178
1760914,1651078724.46,8177
1760915,1651078724.462,8176
1760916,1651078724.464,8175
1760917,1651078724.466,8175
1760918,1651078724.468,8174
1760919,1651078724.47,8174
1760920,1651078724.472,8174
1760921,1651078724.474,8174
1760922,1651078724.476,8174
1760923,1651078724.478,8174
1760924,1651078724.48,8174
1760925,1651078724.482,8175
1760926,1651078724.484,8175
1760927,1651078724.486,8174
1760928,1651078724.488,8174
1760929,1651078724.49,8173
1760930,1651078724.492,8173
1760931,1651078724.494,8172
1760932,1651078724.496,8172
1760933,1651078724.498,8173
1760934,1651078724.5,8173
1760935,1651078724.502,8171
1760936,1651078724.504,8165
1760937,1651078724.506,8155
1760938,1651078724.508,8142
1760939,1651078724.51,8133
1760940,1651078724.512,8130
1760941,1651078724.514,8139
1760942,1651078724.516,8161
1760943,1651078724.518,8195
1760944,1651078724.52,8236
1760945,1651078724.522,8278
1760946,1651078724.524,8316
1760947,1651078724.526,8333
1760948,1651078724.528,8317
1760949,1651078724.53,8271
1760950,1651078724.532,8218
1760951,1651078724.534,8178
1760952,1651078724.536,8152
1760953,1651078724.538,8134
1760954,1651078724.54,8119
1760955,1651078724.542,8105
1760956,1651078724.544,8091
1760957,1651078724.546,8080
1760958,1651078724.548,8076
1760959,1651078724.55,8084
1760960,1651078724.552,8100
1760961,1651078724.554,8122
1760962,1651078724.556,8144
1760963,1651078724.558,8161
1760964,1651078724.56,8173
1760965,1651078724.562,8179
1760966,1651078724.564,8181
1760967,1651078724.566,8182
1760968,1651078724.568,8182
1760969,1651078724.57,8183
1760970,1651078724.572,8183
1760971,1651078724.574,8184
1760972,1651078724.576,8185
1760973,1651078724.578,8186
1760974,1651078724.58,8186
1760975,1651078724.582,8186
1760976,1651078724.584,8187
1760977,1651078724.586,8187
1760978,1651078724.588,8188
1760979,1651078724.59,8189
1760980,1651078724.592,8189
1760981,1651078724.594,8189
1760982,1651078724.596,8190
1760983,1651078724.598,8190
1760984,1651078724.6,8190
1760985,1651078724.602,8190
1760986,1651078724.604,8191
1760987,1651078724.606,8191
1760988,1651078724.608,8192
1760989,1651078724.61,8192
1760990,1651078724.612,8193
1760991,1651078724.614,8193
1760992,1651078724.616,8193
1760993,1651078724.618,8194
1760994,1651078724.62,8194
1760995,1651078724.622,8195
1760996,1651078724.624,8196
1760997,1651078724.626,8197
1760998,1651078724.628,8198
1760999,1651078724.63,8200
1761000,1651078724.632,8201
1761001,1651078724.634,8204
1761002,1651078724.636,8206
1761003,1651078724.638,8209
1761004,1651078724.64,8212
1761005,1651078724.642,8216
1761006,1651078724.644,8219
1761007,1651078724.646,8223
1761008,1651078724.648,8227
1761009,1651078724.65,8230
1761010,1651078724.652,8233
1761011,1651078724.654,8237
1761012,1651078724.656,8240
1761013,1651078724.658,8243
1761014,1651078724.66,8245
1761015,1651078724.662,8247
1761016,1651078724.664,8248
1761017,1651078724.666,8248
1761018,1651078724.668,8247
1761019,1651078724.67,8244
1761020,1651078724.672,8241
1761021,1651078724.674,8237
1761022,1651078724.676,8232
1761023,1651078724.678,8227
1761024,1651078724.68,8221
1761025,1651078724.682,8216
1761026,1651078724.684,8211
1761027,1651078724.686,8206
1761028,1651078724.688,8202
1761029,1651078724.69,8198
1761030,1651078724.692,8195
1761031,1651078724.694,8192
1761032,1651078724.696,8191
1761033,1651078724.698,8191
1761034,1651078724.7,8192
1761035,1651078724.702,8194
1761036,1651078724.704,8196
1761037,1651078724.706,8198
1761038,1651078724.708,8200
1761039,1651078724.71,8202
1761040,1651078724.712,8203
1761041,1651078724.714,8204
1761042,1651078724.716,8204
1761043,1651078724.718,8204
1761044,1651078724.72,8205
1761045,1651078724.722,8205
1761046,1651078724.724,8205
1761047,1651078724.726,8203
1761048,1651078724.728,8200
1761049,1651078724.73,8197
1761050,1651078724.732,8195
1761051,1651078724.734,8193
1761052,1651078724.736,8192
1761053,1651078724.738,8192
1761054,1651078724.74,8190
1761055,1651078724.742,8188
1761056,1651078724.744,8186
1761057,1651078724.746,8183
1761058,1651078724.748,8181
1761059,1651078724.75,8180
1761060,1651078724.752,8179
1761061,1651078724.754,8178
1761062,1651078724.756,8177
1761063,1651078724.758,8176
1761064,1651078724.76,8175
1761065,1651078724.762,8175
1761066,1651078724.764,8175
1761067,1651078724.766,8175
1761068,1651078724.768,8174
1761069,1651078724.77,8174
1761070,1651078724.772,8174
1761071,1651078724.774,8174
1761072,1651078724.776,8174
1761073,1651078724.778,8173
1761074,1651078724.78,8173
1761075,1651078724.782,8173
1761076,1651078724.784,8173
1761077,1651078724.786,8173
1761078,1651078724.788,8173
1761079,1651078724.79,8172
1761080,1651078724.792,8172
1761081,1651078724.794,8172
1761082,1651078724.796,8170
1761083,1651078724.798,8164
1761084,1651078724.8,8154
1761085,1651078724.802,8142
1761086,1651078724.804,8131
1761087,1651078724.806,8129
1761088,1651078724.808,8139
1761089,1651078724.81,8163
1761090,1651078724.812,8199
1761091,1651078724.814,8240
1761092,1651078724.816,8282
1761093,1651078724.818,8317
1761094,1651078724.82,8334
1761095,1651078724.822,8319
1761096,1651078724.824,8274
1761097,1651078724.826,8220
1761098,1651078724.828,8177
1761099,1651078724.83,8148
1761100,1651078724.832,8128
1761101,1651078724.834,8111
1761102,1651078724.836,8096
1761103,1651078724.838,8083
1761104,1651078724.84,8073
1761105,1651078724.842,8071
1761106,1651078724.844,8078
1761107,1651078724.846,8095
1761108,1651078724.848,8117
1761109,1651078724.85,8139
1761110,1651078724.852,8157
1761111,1651078724.854,8169
1761112,1651078724.856,8176
1761113,1651078724.858,8179
1761114,1651078724.86,8179
1761115,1651078724.862,8180
1761116,1651078724.864,8180
1761117,1651078724.866,8180
1761118,1651078724.868,8181
1761119,1651078724.87,8182
1761120,1651078724.872,8183
1761121,1651078724.874,8184
1761122,1651078724.876,8185
1761123,1651078724.878,8185
1761124,1651078724.88,8186
1761125,1651078724.882,8187
1761126,1651078724.884,8187
1761127,1651078724.886,8188
1761128,1651078724.888,8189
1761129,1651078724.89,8189
1761130,1651078724.892,8190
1761131,1651078724.894,8191
1761132,1651078724.896,8191
1761133,1651078724.898,8191
1761134,1651078724.9,8192
1761135,1651078724.902,8192
1761136,1651078724.904,8193
1761137,1651078724.906,8193
1761138,1651078724.908,8194
1761139,1651078724.91,8194
1761140,1651078724.912,8195
1761141,1651078724.914,8195
1761142,1651078724.916,8196
1761143,1651078724.918,8197
1761144,1651078724.92,8198
1761145,1651078724.922,8200
1761146,1651078724.924,8201
1761147,1651078724.926,8203
1761148,1651078724.928,8205
1761149,1651078724.93,8208
1761150,1651078724.932,8212
1761151,1651078724.934,8215
1761152,1651078724.936,8219
1761153,1651078724.938,8223
1761154,1651078724.94,8227
1761155,1651078724.942,8231
1761156,1651078724.944,8234
1761157,1651078724.946,8237
1761158,1651078724.948,8239
1761159,1651078724.95,8242
1761160,1651078724.952,8244
1761161,1651078724.954,8246
1761162,1651078724.956,8248
1761163,1651078724.958,8249
1761164,1651078724.96,8249
1761165,1651078724.962,8248
1761166,1651078724.964,8245
1761167,1651078724.966,8241
1761168,1651078724.968,8237
1761169,1651078724.97,8232
1761170,1651078724.972,8227
1761171,1651078724.974,8222
1761172,1651078724.976,8216
1761173,1651078724.978,8211
1761174,1651078724.98,8205
1761175,1651078724.982,8200
1761176,1651078724.984,8196
1761177,1651078724.986,8193
1761178,1651078724.988,8191
1761179,1651078724.99,8191
1761180,1651078724.992,8191
1761181,1651078724.994,8192
1761182,1651078724.996,8194
1761183,1651078724.998,8196
1761184,1651078725.0,8198
1761185,1651078725.002,8200
1761186,1651078725.004,8201
1761187,1651078725.006,8203
1761188,1651078725.008,8204
1761189,1651078725.01,8205
1761190,1651078725.012,8205
1761191,1651078725.014,8205
1761192,1651078725.016,8205
1761193,1651078725.018,8205
1761194,1651078725.02,8203
1761195,1651078725.022,8200
1761196,1651078725.024,8197
1761197,1651078725.026,8195
1761198,1651078725.028,8194
1761199,1651078725.03,8193
1761200,1651078725.032,8192
1761201,1651078725.034,8190
1761202,1651078725.036,8188
1761203,1651078725.038,8185
1761204,1651078725.04,8183
1761205,1651078725.042,8181
1761206,1651078725.044,8180
1761207,1651078725.046,8179
1761208,1651078725.048,8178
1761209,1651078725.05,8178
1761210,1651078725.052,8177
1761211,1651078725.054,8177
1761212,1651078725.056,8176
1761213,1651078725.058,8176
1761214,1651078725.06,8176
1761215,1651078725.062,8176
1761216,1651078725.064,8175
1761217,1651078725.066,8175
1761218,1651078725.068,8175
1761219,1651078725.07,8175
1761220,1651078725.072,8175
1761221,1651078725.074,8174
1761222,1651078725.076,8174
1761223,1651078725.078,8174
1761224,1651078725.08,8174
1761225,1651078725.082,8174
1761226,1651078725.084,8173
1761227,1651078725.086,8172
1761228,1651078725.088,8171
1761229,1651078725.09,8169
1761230,1651078725.092,8163
1761231,1651078725.094,8153
1761232,1651078725.096,8140
1761233,1651078725.098,8131
1761234,1651078725.1,8128
1761235,1651078725.102,8137
1761236,1651078725.104,8161
1761237,1651078725.106,8196
1761238,1651078725.108,8238
1761239,1651078725.11,8282
1761240,1651078725.112,8320
1761241,1651078725.114,8338
1761242,1651078725.116,8320
1761243,1651078725.118,8272
1761244,1651078725.12,8217
1761245,1651078725.122,8175
1761246,1651078725.124,8148
1761247,1651078725.126,8130
1761248,1651078725.128,8114
1761249,1651078725.13,8100
1761250,1651078725.132,8087
1761251,1651078725.134,8077
1761252,1651078725.136,8075
1761253,1651078725.138,8084
1761254,1651078725.14,8102
1761255,1651078725.142,8124
1761256,1651078725.144,8144
1761257,1651078725.146,8161
1761258,1651078725.148,8172
1761259,1651078725.15,8178
1761260,1651078725.152,8181
1761261,1651078725.154,8183
1761262,1651078725.156,8183
1761263,1651078725.158,8184
1761264,1651078725.16,8184
1761265,1651078725.162,8184
1761266,1651078725.164,8185
1761267,1651078725.166,8185
1761268,1651078725.168,8185
1761269,1651078725.17,8186
1761270,1651078725.172,8187
1761271,1651078725.174,8188
1761272,1651078725.176,8189
1761273,1651078725.178,8189
1761274,1651078725.18,8190
1761275,1651078725.182,8190
1761276,1651078725.184,8191
1761277,1651078725.186,8192
1761278,1651078725.188,8193
1761279,1651078725.19,8194
1761280,1651078725.192,8194
1761281,1651078725.194,8194
1761282,1651078725.196,8194
1761283,1651078725.198,8195
1761284,1651078725.2,8195
1761285,1651078725.202,8196
1761286,1651078725.204,8197
1761287,1651078725.206,8197
1761288,1651078725.208,8197
1761289,1651078725.21,8198
1761290,1651078725.212,8198
1761291,1651078725.214,8199
1761292,1651078725.216,8200
1761293,1651078725.218,8202
1761294,1651078725.22,8204
1761295,1651078725.222,8207
1761296,1651078725.224,8210
1761297,1651078725.226,8213
1761298,1651078725.228,8217
1761299,1651078725.23,8221
1761300,1651078725.232,8224
1761301,1651078725.234,8228
1761302,1651078725.236,8232
1761303,1651078725.238,8235
1761304,1651078725.24,8238
1761305,1651078725.242,8241
1761306,1651078725.244,8243
1761307,1651078725.246,8245
1761308,1651078725.248,8248
1761309,1651078725.25,8250
1761310,1651078725.252,8251
1761311,1651078725.254,8251
1761312,1651078725.256,8249
1761313,1651078725.258,8247
1761314,1651078725.26,8243
1761315,1651078725.262,8238
1761316,1651078725.264,8233
1761317,1651078725.266,8227
1761318,1651078725.268,8222
1761319,1651078725.27,8216
1761320,1651078725.272,8211
1761321,1651078725.274,8206
1761322,1651078725.276,8201
1761323,1651078725.278,8197
1761324,1651078725.28,8195
1761325,1651078725.282,8193
1761326,1651078725.284,8193
1761327,1651078725.286,8194
1761328,1651078725.288,8195
1761329,1651078725.29,8197
1761330,1651078725.292,8199
1761331,1651078725.294,8201
1761332,1651078725.296,8203
1761333,1651078725.298,8205
1761334,1651078725.3,8206
1761335,1651078725.302,8207
1761336,1651078725.304,8208
1761337,1651078725.306,8208
1761338,1651078725.308,8209
1761339,1651078725.31,8208
1761340,1651078725.312,8207
1761341,1651078725.314,8204
1761342,1651078725.316,8202
1761343,1651078725.318,8199
1761344,1651078725.32,8198
1761345,1651078725.322,8197
1761346,1651078725.324,8196
1761347,1651078725.326,8195
1761348,1651078725.328,8193
1761349,1651078725.33,8191
1761350,1651078725.332,8188
1761351,1651078725.334,8185
1761352,1651078725.336,8183
1761353,1651078725.338,8182
1761354,1651078725.34,8181
1761355,1651078725.342,8181
1761356,1651078725.344,8180
1761357,1651078725.346,8180
1761358,1651078725.348,8179
1761359,1651078725.35,8179
1761360,1651078725.352,8179
1761361,1651078725.354,8179
1761362,1651078725.356,8179
1761363,1651078725.358,8179
1761364,1651078725.36,8178
1761365,1651078725.362,8178
1761366,1651078725.364,8178
1761367,1651078725.366,8177
1761368,1651078725.368,8177
1761369,1651078725.37,8177
1761370,1651078725.372,8177
1761371,1651078725.374,8177
1761372,1651078725.376,8177
1761373,1651078725.378,8177
1761374,1651078725.38,8176
1761375,1651078725.382,8176
1761376,1651078725.384,8173
1761377,1651078725.386,8166
1761378,1651078725.388,8156
1761379,1651078725.39,8142
1761380,1651078725.392,8132
1761381,1651078725.394,8130
1761382,1651078725.396,8142
1761383,1651078725.398,8169
1761384,1651078725.4,8208
1761385,1651078725.402,8253
1761386,1651078725.404,8298
1761387,1651078725.406,8336
1761388,1651078725.408,8352
1761389,1651078725.41,8334
1761390,1651078725.412,8283
1761391,1651078725.414,8224
1761392,1651078725.416,8178
1761393,1651078725.418,8147
1761394,1651078725.42,8127
1761395,1651078725.422,8110
1761396,1651078725.424,8096
1761397,1651078725.426,8084
1761398,1651078725.428,8076
1761399,1651078725.43,8078
1761400,1651078725.432,8090
1761401,1651078725.434,8110
1761402,1651078725.436,8133
1761403,1651078725.438,8153
1761404,1651078725.44,8168
1761405,1651078725.442,8176
1761406,1651078725.444,8180
1761407,1651078725.446,8182
1761408,1651078725.448,8182
1761409,1651078725.45,8183
1761410,1651078725.452,8183
1761411,1651078725.454,8184
1761412,1651078725.456,8185
1761413,1651078725.458,8185
1761414,1651078725.46,8186
1761415,1651078725.462,8186
1761416,1651078725.464,8187
1761417,1651078725.466,8187
1761418,1651078725.468,8188
1761419,1651078725.47,8188
1761420,1651078725.472,8189
1761421,1651078725.474,8189
1761422,1651078725.476,8190
1761423,1651078725.478,8190
1761424,1651078725.48,8191
1761425,1651078725.482,8191
1761426,1651078725.484,8192
1761427,1651078725.486,8193
1761428,1651078725.488,8193
1761429,1651078725.49,8194
1761430,1651078725.492,8194
1761431,1651078725.494,8195
1761432,1651078725.496,8195
1761433,1651078725.498,8196
1761434,1651078725.5,8196
1761435,1651078725.502,8196
1761436,1651078725.504,8197
1761437,1651078725.506,8198
1761438,1651078725.508,8199
1761439,1651078725.51,8201
1761440,1651078725.512,8202
1761441,1651078725.514,8204
1761442,1651078725.516,8206
1761443,1651078725.518,8209
1761444,1651078725.52,8213
1761445,1651078725.522,8217
1761446,1651078725.524,8221
1761447,1651078725.526,8225
1761448,1651078725.528,8229
1761449,1651078725.53,8232
1761450,1651078725.532,8236
1761451,1651078725.534,8239
1761452,1651078725.536,8242
1761453,1651078725.538,8245
1761454,1651078725.54,8247
1761455,1651078725.542,8249
1761456,1651078725.544,8251
1761457,1651078725.546,8251
1761458,1651078725.548,8251
1761459,1651078725.55,8249
1761460,1651078725.552,8246
1761461,1651078725.554,8242
1761462,1651078725.556,8238
1761463,1651078725.558,8232
1761464,1651078725.56,8226
1761465,1651078725.562,8220
1761466,1651078725.564,8214
1761467,1651078725.566,8209
1761468,1651078725.568,8205
1761469,1651078725.57,8201
1761470,1651078725.572,8198
1761471,1651078725.574,8195
1761472,1651078725.576,8194
1761473,1651078725.578,8195
1761474,1651078725.58,8196
1761475,1651078725.582,8197
1761476,1651078725.584,8199
1761477,1651078725.586,8202
1761478,1651078725.588,8205
1761479,1651078725.59,8207
1761480,1651078725.592,8209
1761481,1651078725.594,8210
1761482,1651078725.596,8211
1761483,1651078725.598,8211
1761484,1651078725.6,8211
1761485,1651078725.602,8211
1761486,1651078725.604,8211
1761487,1651078725.606,8210
1761488,1651078725.608,8207
1761489,1651078725.61,8204
1761490,1651078725.612,8201
1761491,1651078725.614,8199
1761492,1651078725.616,8198
1761493,1651078725.618,8197
1761494,1651078725.62,8196
1761495,1651078725.622,8194
1761496,1651078725.624,8192
1761497,1651078725.626,8189
1761498,1651078725.628,8187
1761499,1651078725.63,8185
1761500,1651078725.632,8184
1761501,1651078725.634,8183
1761502,1651078725.636,8183
1761503,1651078725.638,8182
1761504,1651078725.64,8181
1761505,1651078725.642,8181
1761506,1651078725.644,8180
1761507,1651078725.646,8180
1761508,1651078725.648,8180
1761509,1651078725.65,8179
1761510,1651078725.652,8179
1761511,1651078725.654,8178
1761512,1651078725.656,8178
1761513,1651078725.658,8178
1761514,1651078725.66,8178
1761515,1651078725.662,8177
1761516,1651078725.664,8177
1761517,1651078725.666,8177
1761518,1651078725.668,8177
1761519,1651078725.67,8177
1761520,1651078725.672,8177
1761521,1651078725.674,8176
1761522,1651078725.676,8175
1761523,1651078725.678,8172
1761524,1651078725.68,8164
1761525,1651078725.682,8152
1761526,1651078725.684,8139
1761527,1651078725.686,8131
1761528,1651078725.688,8131
1761529,1651078725.69,8144
1761530,1651078725.692,8172
1761531,1651078725.694,8210
1761532,1651078725.696,8254
1761533,1651078725.698,8297
1761534,1651078725.7,8332
1761535,1651078725.702,8342
1761536,1651078725.704,8314
1761537,1651078725.706,8262
1761538,1651078725.708,8208
1761539,1651078725.71,8170
1761540,1651078725.712,8145
1761541,1651078725.714,8127
1761542,1651078725.716,8111
1761543,1651078725.718,8096
1761544,1651078725.72,8084
1761545,1651078725.722,8077
1761546,1651078725.724,8080
1761547,1651078725.726,8093
1761548,1651078725.728,8114
1761549,1651078725.73,8136
1761550,1651078725.732,8155
1761551,1651078725.734,8168
1761552,1651078725.736,8175
1761553,1651078725.738,8179
1761554,1651078725.74,8181
1761555,1651078725.742,8181
1761556,1651078725.744,8181
1761557,1651078725.746,8182
1761558,1651078725.748,8182
1761559,1651078725.75,8182
1761560,1651078725.752,8182
1761561,1651078725.754,8182
1761562,1651078725.756,8183
1761563,1651078725.758,8184
1761564,1651078725.76,8185
1761565,1651078725.762,8185
1761566,1651078725.764,8185
1761567,1651078725.766,8186
1761568,1651078725.768,8187
1761569,1651078725.77,8188
1761570,1651078725.772,8189
1761571,1651078725.774,8189
1761572,1651078725.776,8190
1761573,1651078725.778,8190
1761574,1651078725.78,8191
1761575,1651078725.782,8191
1761576,1651078725.784,8192
1761577,1651078725.786,8192
1761578,1651078725.788,8192
1761579,1651078725.79,8193
1761580,1651078725.792,8193
1761581,1651078725.794,8194
1761582,1651078725.796,8195
1761583,1651078725.798,8195
1761584,1651078725.8,8196
1761585,1651078725.802,8197
1761586,1651078725.804,8198
1761587,1651078725.806,8200
1761588,1651078725.808,8202
1761589,1651078725.81,8204
1761590,1651078725.812,8207
1761591,1651078725.814,8210
1761592,1651078725.816,8214
1761593,1651078725.818,8217
1761594,1651078725.82,8221
1761595,1651078725.822,8225
1761596,1651078725.824,8228
1761597,1651078725.826,8232
1761598,1651078725.828,8235
1761599,1651078725.83,8238
1761600,1651078725.832,8241
1761601,1651078725.834,8244
1761602,1651078725.836,8246
1761603,1651078725.838,8248
1761604,1651078725.84,8249
1761605,1651078725.842,8248
1761606,1651078725.844,8246
1761607,1651078725.846,8243
1761608,1651078725.848,8239
1761609,1651078725.85,8235
1761610,1651078725.852,8230
1761611,1651078725.854,8224
1761612,1651078725.856,8219
1761613,1651078725.858,8213
1761614,1651078725.86,8207
1761615,1651078725.862,8202
1761616,1651078725.864,8198
1761617,1651078725.866,8195
1761618,1651078725.868,8193
1761619,1651078725.87,8191
1761620,1651078725.872,8190
1761621,1651078725.874,8191
1761622,1651078725.876,8192
1761623,1651078725.878,8194
1761624,1651078725.88,8196
1761625,1651078725.882,8198
1761626,1651078725.884,8200
1761627,1651078725.886,8201
1761628,1651078725.888,8203
1761629,1651078725.89,8204
1761630,1651078725.892,8204
1761631,1651078725.894,8204
1761632,1651078725.896,8204
1761633,1651078725.898,8205
1761634,1651078725.9,8204
1761635,1651078725.902,8202
1761636,1651078725.904,8199
1761637,1651078725.906,8196
1761638,1651078725.908,8194
1761639,1651078725.91,8193
1761640,1651078725.912,8192
1761641,1651078725.914,8190
1761642,1651078725.916,8188
1761643,1651078725.918,8186
1761644,1651078725.92,8184
1761645,1651078725.922,8182
1761646,1651078725.924,8181
1761647,1651078725.926,8180
1761648,1651078725.928,8180
1761649,1651078725.93,8179
1761650,1651078725.932,8178
1761651,1651078725.934,8177
1761652,1651078725.936,8177
1761653,1651078725.938,8177
1761654,1651078725.94,8177
1761655,1651078725.942,8177
1761656,1651078725.944,8176
1761657,1651078725.946,8176
1761658,1651078725.948,8176
1761659,1651078725.95,8176
1761660,1651078725.952,8176
1761661,1651078725.954,8175
1761662,1651078725.956,8175
1761663,1651078725.958,8174
1761664,1651078725.96,8174
1761665,1651078725.962,8174
1761666,1651078725.964,8175
1761667,1651078725.966,8175
1761668,1651078725.968,8175
1761669,1651078725.97,8174
1761670,1651078725.972,8170
1761671,1651078725.974,8164
1761672,1651078725.976,8153
1761673,1651078725.978,8140
1761674,1651078725.98,8131
1761675,1651078725.982,8130
1761676,1651078725.984,8144
1761677,1651078725.986,8171
1761678,1651078725.988,8209
1761679,1651078725.99,8250
1761680,1651078725.992,8289
1761681,1651078725.994,8321
1761682,1651078725.996,8332
1761683,1651078725.998,8309
1761684,1651078726.0,8260
1761685,1651078726.002,8209
1761686,1651078726.004,8171
1761687,1651078726.006,8146
1761688,1651078726.008,8127
1761689,1651078726.01,8111
1761690,1651078726.012,8097
1761691,1651078726.014,8085
1761692,1651078726.016,8076
1761693,1651078726.018,8075
1761694,1651078726.02,8085
1761695,1651078726.022,8104
1761696,1651078726.024,8126
1761697,1651078726.026,8147
1761698,1651078726.028,8163
1761699,1651078726.03,8173
1761700,1651078726.032,8179
1761701,1651078726.034,8181
1761702,1651078726.036,8182
1761703,1651078726.038,8182
1761704,1651078726.04,8183
1761705,1651078726.042,8183
1761706,1651078726.044,8183
1761707,1651078726.046,8184
1761708,1651078726.048,8184
1761709,1651078726.05,8184
1761710,1651078726.052,8185
1761711,1651078726.054,8186
1761712,1651078726.056,8186
1761713,1651078726.058,8187
1761714,1651078726.06,8187
1761715,1651078726.062,8188
1761716,1651078726.064,8188
1761717,1651078726.066,8189
1761718,1651078726.068,8189
1761719,1651078726.07,8190
1761720,1651078726.072,8191
1761721,1651078726.074,8191
1761722,1651078726.076,8192
1761723,1651078726.078,8192
1761724,1651078726.08,8192
1761725,1651078726.082,8193
1761726,1651078726.084,8193
1761727,1651078726.086,8194
1761728,1651078726.088,8194
1761729,1651078726.09,8195
1761730,1651078726.092,8196
1761731,1651078726.094,8197
1761732,1651078726.096,8198
1761733,1651078726.098,8199
1761734,1651078726.1,8200
1761735,1651078726.102,8202
1761736,1651078726.104,8205
1761737,1651078726.106,8208
1761738,1651078726.108,8211
1761739,1651078726.11,8215
1761740,1651078726.112,8219
1761741,1651078726.114,8223
1761742,1651078726.116,8227
1761743,1651078726.118,8230
1761744,1651078726.12,8234
1761745,1651078726.122,8237
1761746,1651078726.124,8241
1761747,1651078726.126,8244
1761748,1651078726.128,8246
1761749,1651078726.13,8248
1761750,1651078726.132,8250
1761751,1651078726.134,8250
1761752,1651078726.136,8250
1761753,1651078726.138,8249
1761754,1651078726.14,8246
1761755,1651078726.142,8242
1761756,1651078726.144,8236
1761757,1651078726.146,8231
1761758,1651078726.148,8225
1761759,1651078726.15,8220
1761760,1651078726.152,8215
1761761,1651078726.154,8210
1761762,1651078726.156,8205
1761763,1651078726.158,8200
1761764,1651078726.16,8197
1761765,1651078726.162,8194
1761766,1651078726.164,8192
1761767,1651078726.166,8192
1761768,1651078726.168,8192
1761769,1651078726.17,8194
1761770,1651078726.172,8196
1761771,1651078726.174,8198
1761772,1651078726.176,8200
1761773,1651078726.178,8202
1761774,1651078726.18,8203
1761775,1651078726.182,8203
1761776,1651078726.184,8204
1761777,1651078726.186,8204
1761778,1651078726.188,8204
1761779,1651078726.19,8204
1761780,1651078726.192,8204
1761781,1651078726.194,8203
1761782,1651078726.196,8201
1761783,1651078726.198,8198
1761784,1651078726.2,8195
1761785,1651078726.202,8193
1761786,1651078726.204,8192
1761787,1651078726.206,8191
1761788,1651078726.208,8190
1761789,1651078726.21,8188
1761790,1651078726.212,8186
1761791,1651078726.214,8183
1761792,1651078726.216,8181
1761793,1651078726.218,8180
1761794,1651078726.22,8178
1761795,1651078726.222,8177
1761796,1651078726.224,8176
1761797,1651078726.226,8176
1761798,1651078726.228,8175
1761799,1651078726.23,8175
1761800,1651078726.232,8175
1761801,1651078726.234,8175
1761802,1651078726.236,8175
1761803,1651078726.238,8175
1761804,1651078726.24,8174
1761805,1651078726.242,8174
1761806,1651078726.244,8174
1761807,1651078726.246,8175
1761808,1651078726.248,8174
1761809,1651078726.25,8174
1761810,1651078726.252,8174
1761811,1651078726.254,8174
1761812,1651078726.256,8173
1761813,1651078726.258,8173
1761814,1651078726.26,8173
1761815,1651078726.262,8173
1761816,1651078726.264,8173
1761817,1651078726.266,8169
1761818,1651078726.268,8162
1761819,1651078726.27,8150
1761820,1651078726.272,8138
1761821,1651078726.274,8130
1761822,1651078726.276,8131
1761823,1651078726.278,8144
1761824,1651078726.28,8172
1761825,1651078726.282,8209
1761826,1651078726.284,8251
1761827,1651078726.286,8293
1761828,1651078726.288,8325
1761829,1651078726.29,8330
1761830,1651078726.292,8302
1761831,1651078726.294,8251
1761832,1651078726.296,8201
1761833,1651078726.298,8167
1761834,1651078726.3,8145
1761835,1651078726.302,8128
1761836,1651078726.304,8113
1761837,1651078726.306,8099
1761838,1651078726.308,8086
1761839,1651078726.31,8077
1761840,1651078726.312,8076
1761841,1651078726.314,8087
1761842,1651078726.316,8106
1761843,1651078726.318,8128
1761844,1651078726.32,8149
1761845,1651078726.322,8164
1761846,1651078726.324,8174
1761847,1651078726.326,8179
1761848,1651078726.328,8181
1761849,1651078726.33,8181
1761850,1651078726.332,8181
1761851,1651078726.334,8182
1761852,1651078726.336,8183
1761853,1651078726.338,8184
1761854,1651078726.34,8185
1761855,1651078726.342,8185
1761856,1651078726.344,8186
1761857,1651078726.346,8187
1761858,1651078726.348,8187
1761859,1651078726.35,8188
1761860,1651078726.352,8188
1761861,1651078726.354,8189
1761862,1651078726.356,8190
1761863,1651078726.358,8190
1761864,1651078726.36,8191
1761865,1651078726.362,8191
1761866,1651078726.364,8192
1761867,1651078726.366,8192
1761868,1651078726.368,8193
1761869,1651078726.37,8194
1761870,1651078726.372,8195
1761871,1651078726.374,8195
1761872,1651078726.376,8196
1761873,1651078726.378,8196
1761874,1651078726.38,8197
1761875,1651078726.382,8197
1761876,1651078726.384,8198
1761877,1651078726.386,8198
1761878,1651078726.388,8199
1761879,1651078726.39,8200
1761880,1651078726.392,8201
1761881,1651078726.394,8203
1761882,1651078726.396,8204
1761883,1651078726.398,8206
1761884,1651078726.4,8209
1761885,1651078726.402,8213
1761886,1651078726.404,8217
1761887,1651078726.406,8220
1761888,1651078726.408,8224
1761889,1651078726.41,8228
1761890,1651078726.412,8231
1761891,1651078726.414,8235
1761892,1651078726.416,8238
1761893,1651078726.418,8241
1761894,1651078726.42,8244
1761895,1651078726.422,8247
1761896,1651078726.424,8249
1761897,1651078726.426,8250
1761898,1651078726.428,8251
1761899,1651078726.43,8250
1761900,1651078726.432,8249
1761901,1651078726.434,8246
1761902,1651078726.436,8242
1761903,1651078726.438,8237
1761904,1651078726.44,8232
1761905,1651078726.442,8226
1761906,1651078726.444,8221
1761907,1651078726.446,8215
1761908,1651078726.448,8210
1761909,1651078726.45,8206
1761910,1651078726.452,8202
1761911,1651078726.454,8199
1761912,1651078726.456,8196
1761913,1651078726.458,8195
1761914,1651078726.46,8196
1761915,1651078726.462,8196
1761916,1651078726.464,8198
1761917,1651078726.466,8199
1761918,1651078726.468,8201
1761919,1651078726.47,8203
1761920,1651078726.472,8205
1761921,1651078726.474,8206
1761922,1651078726.476,8206
1761923,1651078726.478,8207
1761924,1651078726.48,8207
1761925,1651078726.482,8207
1761926,1651078726.484,8208
1761927,1651078726.486,8208
1761928,1651078726.488,8207
1761929,1651078726.49,8205
1761930,1651078726.492,8202
1761931,1651078726.494,8199
1761932,1651078726.496,8197
1761933,1651078726.498,8196
1761934,1651078726.5,8195
1761935,1651078726.502,8194
1761936,1651078726.504,8192
1761937,1651078726.506,8189
1761938,1651078726.508,8187
1761939,1651078726.51,8185
1761940,1651078726.512,8183
1761941,1651078726.514,8181
1761942,1651078726.516,8180
1761943,1651078726.518,8179
1761944,1651078726.52,8179
1761945,1651078726.522,8178
1761946,1651078726.524,8178
1761947,1651078726.526,8178
1761948,1651078726.528,8177
1761949,1651078726.53,8176
1761950,1651078726.532,8176
1761951,1651078726.534,8176
1761952,1651078726.536,8176
1761953,1651078726.538,8177
1761954,1651078726.54,8177
1761955,1651078726.542,8177
1761956,1651078726.544,8176
1761957,1651078726.546,8176
1761958,1651078726.548,8176
1761959,1651078726.55,8177
1761960,1651078726.552,8177
1761961,1651078726.554,8177
1761962,1651078726.556,8176
1761963,1651078726.558,8175
1761964,1651078726.56,8171
1761965,1651078726.562,8164
1761966,1651078726.564,8152
1761967,1651078726.566,8141
1761968,1651078726.568,8133
1761969,1651078726.57,8136
1761970,1651078726.572,8153
1761971,1651078726.574,8183
1761972,1651078726.576,8223
1761973,1651078726.578,8264
1761974,1651078726.58,8303
1761975,1651078726.582,8331
1761976,1651078726.584,8334
1761977,1651078726.586,8304
1761978,1651078726.588,8252
1761979,1651078726.59,8202
1761980,1651078726.592,8167
1761981,1651078726.594,8143
1761982,1651078726.596,8125
1761983,1651078726.598,8110
1761984,1651078726.6,8096
1761985,1651078726.602,8084
1761986,1651078726.604,8076
1761987,1651078726.606,8078
1761988,1651078726.608,8090
1761989,1651078726.61,8110
1761990,1651078726.612,8133
1761991,1651078726.614,8153
1761992,1651078726.616,8168
1761993,1651078726.618,8178
1761994,1651078726.62,8183
1761995,1651078726.622,8185
1761996,1651078726.624,8186
1761997,1651078726.626,8186
1761998,1651078726.628,8186
1761999,1651078726.63,8186
1762000,1651078726.632,8187
1762001,1651078726.634,8187
1762002,1651078726.636,8188
1762003,1651078726.638,8189
1762004,1651078726.64,8190
1762005,1651078726.642,8191
1762006,1651078726.644,8191
1762007,1651078726.646,8192
1762008,1651078726.648,8193
1762009,1651078726.65,8193
1762010,1651078726.652,8194
1762011,1651078726.654,8194
1762012,1651078726.656,8194
1762013,1651078726.658,8194
1762014,1651078726.66,8195
1762015,1651078726.662,8195
1762016,1651078726.664,8195
1762017,1651078726.666,8195
1762018,1651078726.668,8196
1762019,1651078726.67,8196
1762020,1651078726.672,8196
1762021,1651078726.674,8197
1762022,1651078726.676,8197
1762023,1651078726.678,8197
1762024,1651078726.68,8198
1762025,1651078726.682,8198
1762026,1651078726.684,8199
1762027,1651078726.686,8201
1762028,1651078726.688,8203
1762029,1651078726.69,8206
1762030,1651078726.692,8208
1762031,1651078726.694,8211
1762032,1651078726.696,8215
1762033,1651078726.698,8219
1762034,1651078726.7,8223
1762035,1651078726.702,8227
1762036,1651078726.704,8231
1762037,1651078726.706,8234
1762038,1651078726.708,8238
1762039,1651078726.71,8241
1762040,1651078726.712,8243
1762041,1651078726.714,8246
1762042,1651078726.716,8248
1762043,1651078726.718,8250
1762044,1651078726.72,8252
1762045,1651078726.722,8252
1762046,1651078726.724,8251
1762047,1651078726.726,8249
1762048,1651078726.728,8245
1762049,1651078726.73,8241
1762050,1651078726.732,8236
1762051,1651078726.734,8230
1762052,1651078726.736,8224
1762053,1651078726.738,8219
1762054,1651078726.74,8213
1762055,1651078726.742,8208
1762056,1651078726.744,8203
1762057,1651078726.746,8199
1762058,1651078726.748,8195
1762059,1651078726.75,8193
1762060,1651078726.752,8192
1762061,1651078726.754,8192
1762062,1651078726.756,8193
1762063,1651078726.758,8194
1762064,1651078726.76,8196
1762065,1651078726.762,8198
1762066,1651078726.764,8200
1762067,1651078726.766,8202
1762068,1651078726.768,8203
1762069,1651078726.77,8204
1762070,1651078726.772,8205
1762071,1651078726.774,8205
1762072,1651078726.776,8205
1762073,1651078726.778,8205
1762074,1651078726.78,8205
1762075,1651078726.782,8204
1762076,1651078726.784,8202
1762077,1651078726.786,8200
1762078,1651078726.788,8197
1762079,1651078726.79,8195
1762080,1651078726.792,8194
1762081,1651078726.794,8193
1762082,1651078726.796,8191
1762083,1651078726.798,8189
1762084,1651078726.8,8187
1762085,1651078726.802,8185
1762086,1651078726.804,8183
1762087,1651078726.806,8182
1762088,1651078726.808,8180
1762089,1651078726.81,8179
1762090,1651078726.812,8178
1762091,1651078726.814,8177
1762092,1651078726.816,8177
1762093,1651078726.818,8178
1762094,1651078726.82,8178
1762095,1651078726.822,8178
1762096,1651078726.824,8178
1762097,1651078726.826,8177
1762098,1651078726.828,8177
1762099,1651078726.83,8177
1762100,1651078726.832,8177
1762101,1651078726.834,8177
1762102,1651078726.836,8176
1762103,1651078726.838,8176
1762104,1651078726.84,8177
1762105,1651078726.842,8177
1762106,1651078726.844,8176
1762107,1651078726.846,8176
1762108,1651078726.848,8176
1762109,1651078726.85,8176
1762110,1651078726.852,8174
1762111,1651078726.854,8170
1762112,1651078726.856,8161
1762113,1651078726.858,8149
1762114,1651078726.86,8136
1762115,1651078726.862,8129
1762116,1651078726.864,8132
1762117,1651078726.866,8150
1762118,1651078726.868,8181
1762119,1651078726.87,8222
1762120,1651078726.872,8267
1762121,1651078726.874,8311
1762122,1651078726.876,8340
1762123,1651078726.878,8339
1762124,1651078726.88,8301
1762125,1651078726.882,8244
1762126,1651078726.884,8193
1762127,1651078726.886,8159
1762128,1651078726.888,8138
1762129,1651078726.89,8122
1762130,1651078726.892,8108
1762131,1651078726.894,8094
1762132,1651078726.896,8082
1762133,1651078726.898,8076
1762134,1651078726.9,8081
1762135,1651078726.902,8096
1762136,1651078726.904,8117
1762137,1651078726.906,8138
1762138,1651078726.908,8156
1762139,1651078726.91,8169
1762140,1651078726.912,8177
1762141,1651078726.914,8181
1762142,1651078726.916,8183
1762143,1651078726.918,8184
1762144,1651078726.92,8185
1762145,1651078726.922,8186
1762146,1651078726.924,8186
1762147,1651078726.926,8187
1762148,1651078726.928,8187
1762149,1651078726.93,8187
1762150,1651078726.932,8187
1762151,1651078726.934,8188
1762152,1651078726.936,8188
1762153,1651078726.938,8189
1762154,1651078726.94,8190
1762155,1651078726.942,8191
1762156,1651078726.944,8192
1762157,1651078726.946,8192
1762158,1651078726.948,8193
1762159,1651078726.95,8193
1762160,1651078726.952,8194
1762161,1651078726.954,8195
1762162,1651078726.956,8195
1762163,1651078726.958,8196
1762164,1651078726.96,8196
1762165,1651078726.962,8196
1762166,1651078726.964,8197
1762167,1651078726.966,8197
1762168,1651078726.968,8198
1762169,1651078726.97,8199
1762170,1651078726.972,8199
1762171,1651078726.974,8200
1762172,1651078726.976,8201
1762173,1651078726.978,8202
1762174,1651078726.98,8203
1762175,1651078726.982,8205
1762176,1651078726.984,8207
1762177,1651078726.986,8209
1762178,1651078726.988,8212
1762179,1651078726.99,8216
1762180,1651078726.992,8219
1762181,1651078726.994,8223
1762182,1651078726.996,8226
1762183,1651078726.998,8229
1762184,1651078727.0,8232
1762185,1651078727.002,8235
1762186,1651078727.004,8238
1762187,1651078727.006,8242
1762188,1651078727.008,8245
1762189,1651078727.01,8247
1762190,1651078727.012,8249
1762191,1651078727.014,8251
1762192,1651078727.016,8251
1762193,1651078727.018,8250
1762194,1651078727.02,8249
1762195,1651078727.022,8246
1762196,1651078727.024,8242
1762197,1651078727.026,8237
1762198,1651078727.028,8232
1762199,1651078727.03,8226
1762200,1651078727.032,8220
1762201,1651078727.034,8215
1762202,1651078727.036,8210
1762203,1651078727.038,8206
1762204,1651078727.04,8203
1762205,1651078727.042,8199
1762206,1651078727.044,8197
1762207,1651078727.046,8197
1762208,1651078727.048,8197
1762209,1651078727.05,8198
1762210,1651078727.052,8200
1762211,1651078727.054,8202
1762212,1651078727.056,8205
1762213,1651078727.058,8207
1762214,1651078727.06,8209
1762215,1651078727.062,8210
1762216,1651078727.064,8211
1762217,1651078727.066,8211
1762218,1651078727.068,8211
1762219,1651078727.07,8211
1762220,1651078727.072,8211
1762221,1651078727.074,8210
1762222,1651078727.076,8208
1762223,1651078727.078,8205
1762224,1651078727.08,8203
1762225,1651078727.082,8200
1762226,1651078727.084,8199
1762227,1651078727.086,8198
1762228,1651078727.088,8197
1762229,1651078727.09,8195
1762230,1651078727.092,8192
1762231,1651078727.094,8189
1762232,1651078727.096,8187
1762233,1651078727.098,8185
1762234,1651078727.1,8184
1762235,1651078727.102,8184
1762236,1651078727.104,8183
1762237,1651078727.106,8183
1762238,1651078727.108,8182
1762239,1651078727.11,8182
1762240,1651078727.112,8181
1762241,1651078727.114,8180
1762242,1651078727.116,8180
1762243,1651078727.118,8179
1762244,1651078727.12,8179
1762245,1651078727.122,8179
1762246,1651078727.124,8178
1762247,1651078727.126,8178
1762248,1651078727.128,8178
1762249,1651078727.13,8178
1762250,1651078727.132,8178
1762251,1651078727.134,8178
1762252,1651078727.136,8177
1762253,1651078727.138,8177
1762254,1651078727.14,8177
1762255,1651078727.142,8177
1762256,1651078727.144,8177
1762257,1651078727.146,8175
1762258,1651078727.148,8170
1762259,1651078727.15,8161
1762260,1651078727.152,8149
1762261,1651078727.154,8137
1762262,1651078727.156,8131
1762263,1651078727.158,8138
1762264,1651078727.16,8160
1762265,1651078727.162,8195
1762266,1651078727.164,8238
1762267,1651078727.166,8283
1762268,1651078727.168,8325
1762269,1651078727.17,8352
1762270,1651078727.172,8349
1762271,1651078727.174,8309
1762272,1651078727.176,8250
1762273,1651078727.178,8197
1762274,1651078727.18,8161
1762275,1651078727.182,8138
1762276,1651078727.184,8120
1762277,1651078727.186,8105
1762278,1651078727.188,8091
1762279,1651078727.19,8081
1762280,1651078727.192,8079
1762281,1651078727.194,8087
1762282,1651078727.196,8105
1762283,1651078727.198,8127
1762284,1651078727.2,8149
1762285,1651078727.202,8166
1762286,1651078727.204,8177
1762287,1651078727.206,8183
1762288,1651078727.208,8185
1762289,1651078727.21,8186
1762290,1651078727.212,8186
1762291,1651078727.214,8187
1762292,1651078727.216,8187
1762293,1651078727.218,8188
1762294,1651078727.22,8189
1762295,1651078727.222,8189
1762296,1651078727.224,8189
1762297,1651078727.226,8190
1762298,1651078727.228,8190
1762299,1651078727.23,8191
1762300,1651078727.232,8191
1762301,1651078727.234,8192
1762302,1651078727.236,8193
1762303,1651078727.238,8194
1762304,1651078727.24,8194
1762305,1651078727.242,8195
1762306,1651078727.244,8195
1762307,1651078727.246,8195
1762308,1651078727.248,8195
1762309,1651078727.25,8196
1762310,1651078727.252,8196
1762311,1651078727.254,8197
1762312,1651078727.256,8197
1762313,1651078727.258,8197
1762314,1651078727.26,8198
1762315,1651078727.262,8199
1762316,1651078727.264,8199
1762317,1651078727.266,8199
1762318,1651078727.268,8200
1762319,1651078727.27,8201
1762320,1651078727.272,8203
1762321,1651078727.274,8205
1762322,1651078727.276,8207
1762323,1651078727.278,8209
1762324,1651078727.28,8211
1762325,1651078727.282,8214
1762326,1651078727.284,8217
1762327,1651078727.286,8222
1762328,1651078727.288,8226
1762329,1651078727.29,8230
1762330,1651078727.292,8233
1762331,1651078727.294,8237
1762332,1651078727.296,8240
1762333,1651078727.298,8243
1762334,1651078727.3,8245
1762335,1651078727.302,8247
1762336,1651078727.304,8249
1762337,1651078727.306,8251
1762338,1651078727.308,8252
1762339,1651078727.31,8252
1762340,1651078727.312,8252
1762341,1651078727.314,8250
1762342,1651078727.316,8246
1762343,1651078727.318,8242
1762344,1651078727.32,8237
1762345,1651078727.322,8231
1762346,1651078727.324,8225
1762347,1651078727.326,8219
1762348,1651078727.328,8214
1762349,1651078727.33,8209
1762350,1651078727.332,8204
1762351,1651078727.334,8200
1762352,1651078727.336,8197
1762353,1651078727.338,8196
1762354,1651078727.34,8195
1762355,1651078727.342,8196
1762356,1651078727.344,8197
1762357,1651078727.346,8199
1762358,1651078727.348,8201
1762359,1651078727.35,8203
1762360,1651078727.352,8206
1762361,1651078727.354,8208
1762362,1651078727.356,8209
1762363,1651078727.358,8211
1762364,1651078727.36,8211
1762365,1651078727.362,8211
1762366,1651078727.364,8211
1762367,1651078727.366,8211
1762368,1651078727.368,8210
1762369,1651078727.37,8209
1762370,1651078727.372,8206
1762371,1651078727.374,8203
1762372,1651078727.376,8201
1762373,1651078727.378,8200
1762374,1651078727.38,8199
1762375,1651078727.382,8197
1762376,1651078727.384,8195
1762377,1651078727.386,8193
1762378,1651078727.388,8191
1762379,1651078727.39,8189
1762380,1651078727.392,8187
1762381,1651078727.394,8185
1762382,1651078727.396,8184
1762383,1651078727.398,8183
1762384,1651078727.4,8182
1762385,1651078727.402,8182
1762386,1651078727.404,8182
1762387,1651078727.406,8181
1762388,1651078727.408,8181
1762389,1651078727.41,8181
1762390,1651078727.412,8180
1762391,1651078727.414,8179
1762392,1651078727.416,8179
1762393,1651078727.418,8179
1762394,1651078727.42,8179
1762395,1651078727.422,8179
1762396,1651078727.424,8178
1762397,1651078727.426,8178
1762398,1651078727.428,8178
1762399,1651078727.43,8179
1762400,1651078727.432,8179
1762401,1651078727.434,8179
1762402,1651078727.436,8178
1762403,1651078727.438,8178
1762404,1651078727.44,8176
1762405,1651078727.442,8170
1762406,1651078727.444,8159
1762407,1651078727.446,8146
1762408,1651078727.448,8134
1762409,1651078727.45,8129
1762410,1651078727.452,8137
1762411,1651078727.454,8158
1762412,1651078727.456,8193
1762413,1651078727.458,8234
1762414,1651078727.46,8278
1762415,1651078727.462,8318
1762416,1651078727.464,8340
1762417,1651078727.466,8327
1762418,1651078727.468,8283
1762419,1651078727.47,8228
1762420,1651078727.472,8184
1762421,1651078727.474,8156
1762422,1651078727.476,8136
1762423,1651078727.478,8120
1762424,1651078727.48,8105
1762425,1651078727.482,8091
1762426,1651078727.484,8080
1762427,1651078727.486,8078
1762428,1651078727.488,8088
1762429,1651078727.49,8106
1762430,1651078727.492,8128
1762431,1651078727.494,8149
1762432,1651078727.496,8165
1762433,1651078727.498,8175
1762434,1651078727.5,8180
1762435,1651078727.502,8183
1762436,1651078727.504,8185
1762437,1651078727.506,8186
1762438,1651078727.508,8186
1762439,1651078727.51,8186
1762440,1651078727.512,8187
1762441,1651078727.514,8187
1762442,1651078727.516,8187
1762443,1651078727.518,8188
1762444,1651078727.52,8188
1762445,1651078727.522,8189
1762446,1651078727.524,8190
1762447,1651078727.526,8190
1762448,1651078727.528,8191
1762449,1651078727.53,8192
1762450,1651078727.532,8192
1762451,1651078727.534,8193
1762452,1651078727.536,8193
1762453,1651078727.538,8194
1762454,1651078727.54,8194
1762455,1651078727.542,8195
1762456,1651078727.544,8195
1762457,1651078727.546,8195
1762458,1651078727.548,8196
1762459,1651078727.55,8196
1762460,1651078727.552,8197
1762461,1651078727.554,8198
1762462,1651078727.556,8198
1762463,1651078727.558,8199
1762464,1651078727.56,8199
1762465,1651078727.562,8200
1762466,1651078727.564,8200
1762467,1651078727.566,8202
1762468,1651078727.568,8203
1762469,1651078727.57,8205
1762470,1651078727.572,8206
1762471,1651078727.574,8209
1762472,1651078727.576,8212
1762473,1651078727.578,8216
1762474,1651078727.58,8219
1762475,1651078727.582,8223
1762476,1651078727.584,8227
1762477,1651078727.586,8230
1762478,1651078727.588,8234
1762479,1651078727.59,8237
1762480,1651078727.592,8240
1762481,1651078727.594,8243
1762482,1651078727.596,8245
1762483,1651078727.598,8247
1762484,1651078727.6,8249
1762485,1651078727.602,8251
1762486,1651078727.604,8251
1762487,1651078727.606,8250
1762488,1651078727.608,8248
1762489,1651078727.61,8245
1762490,1651078727.612,8241
1762491,1651078727.614,8235
1762492,1651078727.616,8230
1762493,1651078727.618,8224
1762494,1651078727.62,8218
1762495,1651078727.622,8213
1762496,1651078727.624,8209
1762497,1651078727.626,8204
1762498,1651078727.628,8200
1762499,1651078727.63,8197
1762500,1651078727.632,8195
1762501,1651078727.634,8194
1762502,1651078727.636,8194
1762503,1651078727.638,8196
1762504,1651078727.64,8197
1762505,1651078727.642,8199
1762506,1651078727.644,8201
1762507,1651078727.646,8202
1762508,1651078727.648,8204
1762509,1651078727.65,8205
1762510,1651078727.652,8206
1762511,1651078727.654,8207
1762512,1651078727.656,8207
1762513,1651078727.658,8207
1762514,1651078727.66,8208
1762515,1651078727.662,8208
1762516,1651078727.664,8206
1762517,1651078727.666,8203
1762518,1651078727.668,8200
1762519,1651078727.67,8198
1762520,1651078727.672,8196
1762521,1651078727.674,8195
1762522,1651078727.676,8194
1762523,1651078727.678,8193
1762524,1651078727.68,8190
1762525,1651078727.682,8188
1762526,1651078727.684,8186
1762527,1651078727.686,8183
1762528,1651078727.688,8182
1762529,1651078727.69,8181
1762530,1651078727.692,8180
1762531,1651078727.694,8180
1762532,1651078727.696,8179
1762533,1651078727.698,8178
1762534,1651078727.7,8178
1762535,1651078727.702,8178
1762536,1651078727.704,8178
1762537,1651078727.706,8177
1762538,1651078727.708,8177
1762539,1651078727.71,8176
1762540,1651078727.712,8176
1762541,1651078727.714,8176
1762542,1651078727.716,8176
1762543,1651078727.718,8176
1762544,1651078727.72,8176
1762545,1651078727.722,8176
1762546,1651078727.724,8176
1762547,1651078727.726,8176
1762548,1651078727.728,8175
1762549,1651078727.73,8175
1762550,1651078727.732,8174
1762551,1651078727.734,8173
1762552,1651078727.736,8168
1762553,1651078727.738,8159
1762554,1651078727.74,8146
1762555,1651078727.742,8134
1762556,1651078727.744,8129
1762557,1651078727.746,8136
1762558,1651078727.748,8157
1762559,1651078727.75,8191
1762560,1651078727.752,8231
1762561,1651078727.754,8271
1762562,1651078727.756,8309
1762563,1651078727.758,8333
1762564,1651078727.76,8328
1762565,1651078727.762,8290
1762566,1651078727.764,8237
1762567,1651078727.766,8190
1762568,1651078727.768,8159
1762569,1651078727.77,8137
1762570,1651078727.772,8120
1762571,1651078727.774,8106
1762572,1651078727.776,8093
1762573,1651078727.778,8081
1762574,1651078727.78,8075
1762575,1651078727.782,8079
1762576,1651078727.784,8093
1762577,1651078727.786,8114
1762578,1651078727.788,8136
1762579,1651078727.79,8156
1762580,1651078727.792,8169
1762581,1651078727.794,8177
1762582,1651078727.796,8180
1762583,1651078727.798,8181
1762584,1651078727.8,8181
1762585,1651078727.802,8182
1762586,1651078727.804,8182
1762587,1651078727.806,8183
1762588,1651078727.808,8184
1762589,1651078727.81,8184
1762590,1651078727.812,8184
1762591,1651078727.814,8184
1762592,1651078727.816,8185
1762593,1651078727.818,8185
1762594,1651078727.82,8186
1762595,1651078727.822,8187
1762596,1651078727.824,8188
1762597,1651078727.826,8189
1762598,1651078727.828,8189
1762599,1651078727.83,8190
1762600,1651078727.832,8190
1762601,1651078727.834,8191
1762602,1651078727.836,8191
1762603,1651078727.838,8192
1762604,1651078727.84,8192
1762605,1651078727.842,8193
1762606,1651078727.844,8194
1762607,1651078727.846,8194
1762608,1651078727.848,8195
1762609,1651078727.85,8195
1762610,1651078727.852,8196
1762611,1651078727.854,8196
1762612,1651078727.856,8197
1762613,1651078727.858,8198
1762614,1651078727.86,8199
1762615,1651078727.862,8201
1762616,1651078727.864,8202
1762617,1651078727.866,8204
1762618,1651078727.868,8206
1762619,1651078727.87,8209
1762620,1651078727.872,8213
1762621,1651078727.874,8217
1762622,1651078727.876,8222
1762623,1651078727.878,8226
1762624,1651078727.88,8229
1762625,1651078727.882,8232
1762626,1651078727.884,8236
1762627,1651078727.886,8239
1762628,1651078727.888,8242
1762629,1651078727.89,8246
1762630,1651078727.892,8248
1762631,1651078727.894,8250
1762632,1651078727.896,8251
1762633,1651078727.898,8251
1762634,1651078727.9,8250
1762635,1651078727.902,8248
1762636,1651078727.904,8245
1762637,1651078727.906,8241
1762638,1651078727.908,8235
1762639,1651078727.91,8230
1762640,1651078727.912,8224
1762641,1651078727.914,8217
1762642,1651078727.916,8211
1762643,1651078727.918,8206
1762644,1651078727.92,8201
1762645,1651078727.922,8197
1762646,1651078727.924,8193
1762647,1651078727.926,8191
1762648,1651078727.928,8190
1762649,1651078727.93,8190
1762650,1651078727.932,8191
1762651,1651078727.934,8193
1762652,1651078727.936,8196
1762653,1651078727.938,8198
1762654,1651078727.94,8200
1762655,1651078727.942,8202
1762656,1651078727.944,8203
1762657,1651078727.946,8203
1762658,1651078727.948,8204
1762659,1651078727.95,8205
1762660,1651078727.952,8205
1762661,1651078727.954,8206
1762662,1651078727.956,8206
1762663,1651078727.958,8205
1762664,1651078727.96,8202
1762665,1651078727.962,8199
1762666,1651078727.964,8196
1762667,1651078727.966,8194
1762668,1651078727.968,8193
1762669,1651078727.97,8193
1762670,1651078727.972,8191
1762671,1651078727.974,8190
1762672,1651078727.976,8188
1762673,1651078727.978,8185
1762674,1651078727.98,8183
1762675,1651078727.982,8181
1762676,1651078727.984,8180
1762677,1651078727.986,8180
1762678,1651078727.988,8179
1762679,1651078727.99,8178
1762680,1651078727.992,8178
1762681,1651078727.994,8177
1762682,1651078727.996,8177
1762683,1651078727.998,8177
1762684,1651078728.0,8177
1762685,1651078728.002,8176
1762686,1651078728.004,8176
1762687,1651078728.006,8176
1762688,1651078728.008,8176
1762689,1651078728.01,8176
1762690,1651078728.012,8175
1762691,1651078728.014,8175
1762692,1651078728.016,8176
1762693,1651078728.018,8176
1762694,1651078728.02,8176
1762695,1651078728.022,8176
1762696,1651078728.024,8176
1762697,1651078728.026,8175
1762698,1651078728.028,8173
1762699,1651078728.03,8168
1762700,1651078728.032,8158
1762701,1651078728.034,8146
1762702,1651078728.036,8135
1762703,1651078728.038,8131
1762704,1651078728.04,8137
1762705,1651078728.042,8157
1762706,1651078728.044,8190
1762707,1651078728.046,8230
1762708,1651078728.048,8272
1762709,1651078728.05,8311
1762710,1651078728.052,8332
1762711,1651078728.054,8321
1762712,1651078728.056,8279
1762713,1651078728.058,8226
1762714,1651078728.06,8184
1762715,1651078728.062,8156
1762716,1651078728.064,8137
1762717,1651078728.066,8121
1762718,1651078728.068,8106
1762719,1651078728.07,8092
1762720,1651078728.072,8080
1762721,1651078728.074,8075
1762722,1651078728.076,8081
1762723,1651078728.078,8097
1762724,1651078728.08,8117
1762725,1651078728.082,8138
1762726,1651078728.084,8156
1762727,1651078728.086,8168
1762728,1651078728.088,8176
1762729,1651078728.09,8180
1762730,1651078728.092,8181
1762731,1651078728.094,8181
1762732,1651078728.096,8181
1762733,1651078728.098,8182
1762734,1651078728.1,8182
1762735,1651078728.102,8183
1762736,1651078728.104,8184
1762737,1651078728.106,8184
1762738,1651078728.108,8185
1762739,1651078728.11,8185
1762740,1651078728.112,8185
1762741,1651078728.114,8186
1762742,1651078728.116,8186
1762743,1651078728.118,8187
1762744,1651078728.12,8188
1762745,1651078728.122,8188
1762746,1651078728.124,8189
1762747,1651078728.126,8190
1762748,1651078728.128,8190
1762749,1651078728.13,8190
1762750,1651078728.132,8191
1762751,1651078728.134,8192
1762752,1651078728.136,8193
1762753,1651078728.138,8194
1762754,1651078728.14,8195
1762755,1651078728.142,8196
1762756,1651078728.144,8196
1762757,1651078728.146,8196
1762758,1651078728.148,8197
1762759,1651078728.15,8197
1762760,1651078728.152,8198
1762761,1651078728.154,8199
1762762,1651078728.156,8200
1762763,1651078728.158,8202
1762764,1651078728.16,8205
1762765,1651078728.162,8208
1762766,1651078728.164,8211
1762767,1651078728.166,8215
1762768,1651078728.168,8218
1762769,1651078728.17,8222
1762770,1651078728.172,8225
1762771,1651078728.174,8229
1762772,1651078728.176,8232
1762773,1651078728.178,8236
1762774,1651078728.18,8239
1762775,1651078728.182,8242
1762776,1651078728.184,8244
1762777,1651078728.186,8247
1762778,1651078728.188,8249
1762779,1651078728.19,8250
1762780,1651078728.192,8250
1762781,1651078728.194,8250
1762782,1651078728.196,8247
1762783,1651078728.198,8243
1762784,1651078728.2,8239
1762785,1651078728.202,8234
1762786,1651078728.204,8228
1762787,1651078728.206,8223
1762788,1651078728.208,8217
1762789,1651078728.21,8212
1762790,1651078728.212,8207
1762791,1651078728.214,8203
1762792,1651078728.216,8199
1762793,1651078728.218,8196
1762794,1651078728.22,8194
1762795,1651078728.222,8193
1762796,1651078728.224,8193
1762797,1651078728.226,8194
1762798,1651078728.228,8195
1762799,1651078728.23,8197
1762800,1651078728.232,8198
1762801,1651078728.234,8200
1762802,1651078728.236,8201
1762803,1651078728.238,8202
1762804,1651078728.24,8203
1762805,1651078728.242,8203
1762806,1651078728.244,8203
1762807,1651078728.246,8204
1762808,1651078728.248,8204
1762809,1651078728.25,8204
1762810,1651078728.252,8203
1762811,1651078728.254,8201
1762812,1651078728.256,8198
1762813,1651078728.258,8196
1762814,1651078728.26,8194
1762815,1651078728.262,8193
1762816,1651078728.264,8192
1762817,1651078728.266,8190
1762818,1651078728.268,8188
1762819,1651078728.27,8186
1762820,1651078728.272,8184
1762821,1651078728.274,8182
1762822,1651078728.276,8181
1762823,1651078728.278,8179
1762824,1651078728.28,8178
1762825,1651078728.282,8177
1762826,1651078728.284,8177
1762827,1651078728.286,8176
1762828,1651078728.288,8176
1762829,1651078728.29,8176
1762830,1651078728.292,8176
1762831,1651078728.294,8176
1762832,1651078728.296,8177
1762833,1651078728.298,8176
1762834,1651078728.3,8176
1762835,1651078728.302,8175
1762836,1651078728.304,8175
1762837,1651078728.306,8175
1762838,1651078728.308,8176
1762839,1651078728.31,8176
1762840,1651078728.312,8175
1762841,1651078728.314,8175
1762842,1651078728.316,8174
1762843,1651078728.318,8174
1762844,1651078728.32,8174
1762845,1651078728.322,8172
1762846,1651078728.324,8167
1762847,1651078728.326,8157
1762848,1651078728.328,8145
1762849,1651078728.33,8134
1762850,1651078728.332,8129
1762851,1651078728.334,8137
1762852,1651078728.336,8160
1762853,1651078728.338,8195
1762854,1651078728.34,8236
1762855,1651078728.342,8277
1762856,1651078728.344,8313
1762857,1651078728.346,8335
1762858,1651078728.348,8325
1762859,1651078728.35,8284
1762860,1651078728.352,8230
1762861,1651078728.354,8186
1762862,1651078728.356,8155
1762863,1651078728.358,8134
1762864,1651078728.36,8116
1762865,1651078728.362,8102
1762866,1651078728.364,8089
1762867,1651078728.366,8078
1762868,1651078728.368,8073
1762869,1651078728.37,8079
1762870,1651078728.372,8095
1762871,1651078728.374,8116
1762872,1651078728.376,8138
1762873,1651078728.378,8157
1762874,1651078728.38,8170
1762875,1651078728.382,8177
1762876,1651078728.384,8180
1762877,1651078728.386,8181
1762878,1651078728.388,8181
1762879,1651078728.39,8182
1762880,1651078728.392,8182
1762881,1651078728.394,8183
1762882,1651078728.396,8184
1762883,1651078728.398,8184
1762884,1651078728.4,8184
1762885,1651078728.402,8185
1762886,1651078728.404,8185
1762887,1651078728.406,8186
1762888,1651078728.408,8187
1762889,1651078728.41,8187
1762890,1651078728.412,8188
1762891,1651078728.414,8188
1762892,1651078728.416,8189
1762893,1651078728.418,8190
1762894,1651078728.42,8190
1762895,1651078728.422,8190
1762896,1651078728.424,8191
1762897,1651078728.426,8191
1762898,1651078728.428,8191
1762899,1651078728.43,8191
1762900,1651078728.432,8192
1762901,1651078728.434,8193
1762902,1651078728.436,8194
1762903,1651078728.438,8195
1762904,1651078728.44,8196
1762905,1651078728.442,8196
1762906,1651078728.444,8197
1762907,1651078728.446,8197
1762908,1651078728.448,8198
1762909,1651078728.45,8199
1762910,1651078728.452,8201
1762911,1651078728.454,8203
1762912,1651078728.456,8206
1762913,1651078728.458,8209
1762914,1651078728.46,8213
1762915,1651078728.462,8217
1762916,1651078728.464,8221
1762917,1651078728.466,8225
1762918,1651078728.468,8229
1762919,1651078728.47,8232
1762920,1651078728.472,8235
1762921,1651078728.474,8238
1762922,1651078728.476,8240
1762923,1651078728.478,8243
1762924,1651078728.48,8245
1762925,1651078728.482,8247
1762926,1651078728.484,8248
1762927,1651078728.486,8248
1762928,1651078728.488,8247
1762929,1651078728.49,8244
1762930,1651078728.492,8241
1762931,1651078728.494,8236
1762932,1651078728.496,8232
1762933,1651078728.498,8226
1762934,1651078728.5,8220
1762935,1651078728.502,8215
1762936,1651078728.504,8209
1762937,1651078728.506,8204
1762938,1651078728.508,8200
1762939,1651078728.51,8196
1762940,1651078728.512,8192
1762941,1651078728.514,8190
1762942,1651078728.516,8189
1762943,1651078728.518,8190
1762944,1651078728.52,8191
1762945,1651078728.522,8193
1762946,1651078728.524,8195
1762947,1651078728.526,8197
1762948,1651078728.528,8199
1762949,1651078728.53,8201
1762950,1651078728.532,8202
1762951,1651078728.534,8203
1762952,1651078728.536,8204
1762953,1651078728.538,8204
1762954,1651078728.54,8204
1762955,1651078728.542,8205
1762956,1651078728.544,8204
1762957,1651078728.546,8203
1762958,1651078728.548,8199
1762959,1651078728.55,8196
1762960,1651078728.552,8194
1762961,1651078728.554,8192
1762962,1651078728.556,8191
1762963,1651078728.558,8190
1762964,1651078728.56,8188
1762965,1651078728.562,8186
1762966,1651078728.564,8184
1762967,1651078728.566,8182
1762968,1651078728.568,8180
1762969,1651078728.57,8180
1762970,1651078728.572,8179
1762971,1651078728.574,8178
1762972,1651078728.576,8178
1762973,1651078728.578,8177
1762974,1651078728.58,8176
1762975,1651078728.582,8176
1762976,1651078728.584,8175
1762977,1651078728.586,8175
1762978,1651078728.588,8176
1762979,1651078728.59,8176
1762980,1651078728.592,8176
1762981,1651078728.594,8175
1762982,1651078728.596,8175
1762983,1651078728.598,8175
1762984,1651078728.6,8175
1762985,1651078728.602,8175
1762986,1651078728.604,8175
1762987,1651078728.606,8175
1762988,1651078728.608,8175
1762989,1651078728.61,8175
1762990,1651078728.612,8174
1762991,1651078728.614,8173
1762992,1651078728.616,8171
1762993,1651078728.618,8166
1762994,1651078728.62,8157
1762995,1651078728.622,8144
1762996,1651078728.624,8133
1762997,1651078728.626,8128
1762998,1651078728.628,8134
1762999,1651078728.63,8156
1763000,1651078728.632,8190
1763001,1651078728.634,8232
1763002,1651078728.636,8277
1763003,1651078728.638,8318
1763004,1651078728.64,8343
1763005,1651078728.642,8333
1763006,1651078728.644,8287
1763007,1651078728.646,8230
1763008,1651078728.648,8183
1763009,1651078728.65,8152
1763010,1651078728.652,8132
1763011,1651078728.654,8116
1763012,1651078728.656,8102
1763013,1651078728.658,8088
1763014,1651078728.66,8078
1763015,1651078728.662,8076
1763016,1651078728.664,8084
1763017,1651078728.666,8101
1763018,1651078728.668,8122
1763019,1651078728.67,8143
1763020,1651078728.672,8161
1763021,1651078728.674,8173
1763022,1651078728.676,8179
1763023,1651078728.678,8182
1763024,1651078728.68,8183
1763025,1651078728.682,8184
1763026,1651078728.684,8184
1763027,1651078728.686,8184
1763028,1651078728.688,8184
1763029,1651078728.69,8185
1763030,1651078728.692,8185
1763031,1651078728.694,8186
1763032,1651078728.696,8186
1763033,1651078728.698,8186
1763034,1651078728.7,8186
1763035,1651078728.702,8187
1763036,1651078728.704,8188
1763037,1651078728.706,8189
1763038,1651078728.708,8189
1763039,1651078728.71,8190
1763040,1651078728.712,8190
1763041,1651078728.714,8190
1763042,1651078728.716,8191
1763043,1651078728.718,8192
1763044,1651078728.72,8192
1763045,1651078728.722,8193
1763046,1651078728.724,8193
1763047,1651078728.726,8193
1763048,1651078728.728,8194
1763049,1651078728.73,8194
1763050,1651078728.732,8195
1763051,1651078728.734,8196
1763052,1651078728.736,8196
1763053,1651078728.738,8197
1763054,1651078728.74,8198
1763055,1651078728.742,8199
1763056,1651078728.744,8201
1763057,1651078728.746,8202
1763058,1651078728.748,8205
1763059,1651078728.75,8208
1763060,1651078728.752,8211
1763061,1651078728.754,8215
1763062,1651078728.756,8219
1763063,1651078728.758,8222
1763064,1651078728.76,8226
1763065,1651078728.762,8230
1763066,1651078728.764,8234
1763067,1651078728.766,8237
1763068,1651078728.768,8240
1763069,1651078728.77,8243
1763070,1651078728.772,8246
1763071,1651078728.774,8248
1763072,1651078728.776,8250
1763073,1651078728.778,8250
1763074,1651078728.78,8250
1763075,1651078728.782,8248
1763076,1651078728.784,8246
1763077,1651078728.786,8242
1763078,1651078728.788,8238
1763079,1651078728.79,8233
1763080,1651078728.792,8228
1763081,1651078728.794,8222
1763082,1651078728.796,8216
1763083,1651078728.798,8211
1763084,1651078728.8,8206
1763085,1651078728.802,8202
1763086,1651078728.804,8198
1763087,1651078728.806,8195
1763088,1651078728.808,8193
1763089,1651078728.81,8193
1763090,1651078728.812,8193
1763091,1651078728.814,8195
1763092,1651078728.816,8197
1763093,1651078728.818,8199
1763094,1651078728.82,8201
1763095,1651078728.822,8204
1763096,1651078728.824,8206
1763097,1651078728.826,8207
1763098,1651078728.828,8208
1763099,1651078728.83,8209
1763100,1651078728.832,8209
1763101,1651078728.834,8208
1763102,1651078728.836,8208
1763103,1651078728.838,8207
1763104,1651078728.84,8205
1763105,1651078728.842,8203
1763106,1651078728.844,8200
1763107,1651078728.846,8198
1763108,1651078728.848,8197
1763109,1651078728.85,8197
1763110,1651078728.852,8196
1763111,1651078728.854,8194
1763112,1651078728.856,8191
1763113,1651078728.858,8189
1763114,1651078728.86,8186
1763115,1651078728.862,8184
1763116,1651078728.864,8183
1763117,1651078728.866,8182
1763118,1651078728.868,8181
1763119,1651078728.87,8180
1763120,1651078728.872,8180
1763121,1651078728.874,8180
1763122,1651078728.876,8180
1763123,1651078728.878,8179
1763124,1651078728.88,8179
1763125,1651078728.882,8179
1763126,1651078728.884,8178
1763127,1651078728.886,8178
1763128,1651078728.888,8178
1763129,1651078728.89,8178
1763130,1651078728.892,8178
1763131,1651078728.894,8178
1763132,1651078728.896,8178
1763133,1651078728.898,8177
1763134,1651078728.9,8177
1763135,1651078728.902,8176
1763136,1651078728.904,8176
1763137,1651078728.906,8176
1763138,1651078728.908,8176
1763139,1651078728.91,8174
1763140,1651078728.912,8168
1763141,1651078728.914,8157
1763142,1651078728.916,8144
1763143,1651078728.918,8133
1763144,1651078728.92,8130
1763145,1651078728.922,8141
1763146,1651078728.924,8167
1763147,1651078728.926,8204
1763148,1651078728.928,8247
1763149,1651078728.93,8290
1763150,1651078728.932,8328
1763151,1651078728.934,8350
1763152,1651078728.936,8336
1763153,1651078728.938,8289
1763154,1651078728.94,8230
1763155,1651078728.942,8182
1763156,1651078728.944,8151
1763157,1651078728.946,8130
1763158,1651078728.948,8113
1763159,1651078728.95,8098
1763160,1651078728.952,8086
1763161,1651078728.954,8077
1763162,1651078728.956,8078
1763163,1651078728.958,8089
1763164,1651078728.96,8108
1763165,1651078728.962,8129
1763166,1651078728.964,8150
1763167,1651078728.966,8165
1763168,1651078728.968,8175
1763169,1651078728.97,8179
1763170,1651078728.972,8181
1763171,1651078728.974,8181
1763172,1651078728.976,8181
1763173,1651078728.978,8181
1763174,1651078728.98,8182
1763175,1651078728.982,8183
1763176,1651078728.984,8184
1763177,1651078728.986,8185
1763178,1651078728.988,8186
1763179,1651078728.99,8186
1763180,1651078728.992,8186
1763181,1651078728.994,8187
1763182,1651078728.996,8187
1763183,1651078728.998,8188
1763184,1651078729.0,8188
1763185,1651078729.002,8189
1763186,1651078729.004,8189
1763187,1651078729.006,8190
1763188,1651078729.008,8190
1763189,1651078729.01,8191
1763190,1651078729.012,8191
1763191,1651078729.014,8191
1763192,1651078729.016,8192
1763193,1651078729.018,8192
1763194,1651078729.02,8193
1763195,1651078729.022,8194
1763196,1651078729.024,8194
1763197,1651078729.026,8194
1763198,1651078729.028,8194
1763199,1651078729.03,8195
1763200,1651078729.032,8195
1763201,1651078729.034,8197
1763202,1651078729.036,8198
1763203,1651078729.038,8200
1763204,1651078729.04,8202
1763205,1651078729.042,8204
1763206,1651078729.044,8207
1763207,1651078729.046,8210
1763208,1651078729.048,8214
1763209,1651078729.05,8218
1763210,1651078729.052,8222
1763211,1651078729.054,8226
1763212,1651078729.056,8230
1763213,1651078729.058,8233
1763214,1651078729.06,8236
1763215,1651078729.062,8239
1763216,1651078729.064,8241
1763217,1651078729.066,8243
1763218,1651078729.068,8245
1763219,1651078729.07,8247
1763220,1651078729.072,8248
1763221,1651078729.074,8248
1763222,1651078729.076,8247
1763223,1651078729.078,8244
1763224,1651078729.08,8240
1763225,1651078729.082,8235
1763226,1651078729.084,8231
1763227,1651078729.086,8225
1763228,1651078729.088,8220
1763229,1651078729.09,8214
1763230,1651078729.092,8209
1763231,1651078729.094,8204
1763232,1651078729.096,8199
1763233,1651078729.098,8195
1763234,1651078729.1,8192
1763235,1651078729.102,8191
1763236,1651078729.104,8191
1763237,1651078729.106,8192
1763238,1651078729.108,8193
1763239,1651078729.11,8195
1763240,1651078729.112,8197
1763241,1651078729.114,8199
1763242,1651078729.116,8201
1763243,1651078729.118,8203
1763244,1651078729.12,8204
1763245,1651078729.122,8206
1763246,1651078729.124,8206
1763247,1651078729.126,8207
1763248,1651078729.128,8207
1763249,1651078729.13,8207
1763250,1651078729.132,8206
1763251,1651078729.134,8203
1763252,1651078729.136,8200
1763253,1651078729.138,8197
1763254,1651078729.14,8195
1763255,1651078729.142,8194
1763256,1651078729.144,8193
1763257,1651078729.146,8192
1763258,1651078729.148,8190
1763259,1651078729.15,8187
1763260,1651078729.152,8185
1763261,1651078729.154,8183
1763262,1651078729.156,8181
1763263,1651078729.158,8180
1763264,1651078729.16,8178
1763265,1651078729.162,8177
1763266,1651078729.164,8177
1763267,1651078729.166,8177
1763268,1651078729.168,8176
1763269,1651078729.17,8176
1763270,1651078729.172,8176
1763271,1651078729.174,8176
1763272,1651078729.176,8176
1763273,1651078729.178,8176
1763274,1651078729.18,8175
1763275,1651078729.182,8175
1763276,1651078729.184,8174
1763277,1651078729.186,8174
1763278,1651078729.188,8174
1763279,1651078729.19,8174
1763280,1651078729.192,8174
1763281,1651078729.194,8174
1763282,1651078729.196,8174
1763283,1651078729.198,8174
1763284,1651078729.2,8174
1763285,1651078729.202,8173
1763286,1651078729.204,8170
1763287,1651078729.206,8163
1763288,1651078729.208,8152
1763289,1651078729.21,8139
1763290,1651078729.212,8129
1763291,1651078729.214,8128
1763292,1651078729.216,8139
1763293,1651078729.218,8164
1763294,1651078729.22,8202
1763295,1651078729.222,8244
1763296,1651078729.224,8287
1763297,1651078729.226,8324
1763298,1651078729.228,8337
1763299,1651078729.23,8315
1763300,1651078729.232,8266
1763301,1651078729.234,8213
1763302,1651078729.236,8175
1763303,1651078729.238,8150
1763304,1651078729.24,8132
1763305,1651078729.242,8116
1763306,1651078729.244,8102
1763307,1651078729.246,8088
1763308,1651078729.248,8079
1763309,1651078729.25,8079
1763310,1651078729.252,8090
1763311,1651078729.254,8108
1763312,1651078729.256,8130
1763313,1651078729.258,8149
1763314,1651078729.26,8165
1763315,1651078729.262,8175
1763316,1651078729.264,8180
1763317,1651078729.266,8183
1763318,1651078729.268,8184
1763319,1651078729.27,8184
1763320,1651078729.272,8184
1763321,1651078729.274,8184
1763322,1651078729.276,8184
1763323,1651078729.278,8184
1763324,1651078729.28,8184
1763325,1651078729.282,8184
1763326,1651078729.284,8185
1763327,1651078729.286,8186
1763328,1651078729.288,8186
1763329,1651078729.29,8187
1763330,1651078729.292,8187
1763331,1651078729.294,8188
1763332,1651078729.296,8188
1763333,1651078729.298,8189
1763334,1651078729.3,8189
1763335,1651078729.302,8190
1763336,1651078729.304,8190
1763337,1651078729.306,8191
1763338,1651078729.308,8191
1763339,1651078729.31,8192
1763340,1651078729.312,8192
1763341,1651078729.314,8192
1763342,1651078729.316,8192
1763343,1651078729.318,8192
1763344,1651078729.32,8193
1763345,1651078729.322,8193
1763346,1651078729.324,8193
1763347,1651078729.326,8194
1763348,1651078729.328,8195
1763349,1651078729.33,8196
1763350,1651078729.332,8197
1763351,1651078729.334,8199
1763352,1651078729.336,8202
1763353,1651078729.338,8204
1763354,1651078729.34,8208
1763355,1651078729.342,8211
1763356,1651078729.344,8215
1763357,1651078729.346,8218
1763358,1651078729.348,8221
1763359,1651078729.35,8225
1763360,1651078729.352,8228
1763361,1651078729.354,8232
1763362,1651078729.356,8235
1763363,1651078729.358,8239
1763364,1651078729.36,8241
1763365,1651078729.362,8244
1763366,1651078729.364,8245
1763367,1651078729.366,8246
1763368,1651078729.368,8246
1763369,1651078729.37,8245
1763370,1651078729.372,8243
1763371,1651078729.374,8240
1763372,1651078729.376,8235
1763373,1651078729.378,8229
1763374,1651078729.38,8223
1763375,1651078729.382,8217
1763376,1651078729.384,8212
1763377,1651078729.386,8208
1763378,1651078729.388,8204
1763379,1651078729.39,8199
1763380,1651078729.392,8195
1763381,1651078729.394,8192
1763382,1651078729.396,8189
1763383,1651078729.398,8189
1763384,1651078729.4,8189
1763385,1651078729.402,8191
1763386,1651078729.404,8193
1763387,1651078729.406,8195
1763388,1651078729.408,8197
1763389,1651078729.41,8199
1763390,1651078729.412,8201
1763391,1651078729.414,8202
1763392,1651078729.416,8203
1763393,1651078729.418,8203
1763394,1651078729.42,8203
1763395,1651078729.422,8203
1763396,1651078729.424,8204
1763397,1651078729.426,8203
1763398,1651078729.428,8201
1763399,1651078729.43,8198
1763400,1651078729.432,8196
1763401,1651078729.434,8194
1763402,1651078729.436,8193
1763403,1651078729.438,8192
1763404,1651078729.44,8192
1763405,1651078729.442,8190
1763406,1651078729.444,8187
1763407,1651078729.446,8184
1763408,1651078729.448,8182
1763409,1651078729.45,8181
1763410,1651078729.452,8180
1763411,1651078729.454,8179
1763412,1651078729.456,8178
1763413,1651078729.458,8177
1763414,1651078729.46,8176
1763415,1651078729.462,8176
1763416,1651078729.464,8175
1763417,1651078729.466,8175
1763418,1651078729.468,8176
1763419,1651078729.47,8176
1763420,1651078729.472,8176
1763421,1651078729.474,8176
1763422,1651078729.476,8176
1763423,1651078729.478,8175
1763424,1651078729.48,8175
1763425,1651078729.482,8175
1763426,1651078729.484,8176
1763427,1651078729.486,8176
1763428,1651078729.488,8175
1763429,1651078729.49,8175
1763430,1651078729.492,8175
1763431,1651078729.494,8174
1763432,1651078729.496,8174
1763433,1651078729.498,8171
1763434,1651078729.5,8165
1763435,1651078729.502,8155
1763436,1651078729.504,8142
1763437,1651078729.506,8133
1763438,1651078729.508,8131
1763439,1651078729.51,8143
1763440,1651078729.512,8169
1763441,1651078729.514,8205
1763442,1651078729.516,8244
1763443,1651078729.518,8284
1763444,1651078729.52,8319
1763445,1651078729.522,8335
1763446,1651078729.524,8317
1763447,1651078729.526,8271
1763448,1651078729.528,8218
1763449,1651078729.53,8177
1763450,1651078729.532,8151
1763451,1651078729.534,8132
1763452,1651078729.536,8116
1763453,1651078729.538,8104
1763454,1651078729.54,8091
1763455,1651078729.542,8081
1763456,1651078729.544,8078
1763457,1651078729.546,8085
1763458,1651078729.548,8101
1763459,1651078729.55,8122
1763460,1651078729.552,8144
1763461,1651078729.554,8163
1763462,1651078729.556,8174
1763463,1651078729.558,8180
1763464,1651078729.56,8182
1763465,1651078729.562,8182
1763466,1651078729.564,8182
1763467,1651078729.566,8182
1763468,1651078729.568,8182
1763469,1651078729.57,8183
1763470,1651078729.572,8183
1763471,1651078729.574,8184
1763472,1651078729.576,8184
1763473,1651078729.578,8184
1763474,1651078729.58,8185
1763475,1651078729.582,8185
1763476,1651078729.584,8186
1763477,1651078729.586,8187
1763478,1651078729.588,8188
1763479,1651078729.59,8189
1763480,1651078729.592,8189
1763481,1651078729.594,8189
1763482,1651078729.596,8190
1763483,1651078729.598,8190
1763484,1651078729.6,8191
1763485,1651078729.602,8191
1763486,1651078729.604,8192
1763487,1651078729.606,8192
1763488,1651078729.608,8192
1763489,1651078729.61,8193
1763490,1651078729.612,8193
1763491,1651078729.614,8194
1763492,1651078729.616,8195
1763493,1651078729.618,8196
1763494,1651078729.62,8197
1763495,1651078729.622,8199
1763496,1651078729.624,8200
1763497,1651078729.626,8201
1763498,1651078729.628,8203
1763499,1651078729.63,8205
1763500,1651078729.632,8208
1763501,1651078729.634,8211
1763502,1651078729.636,8215
1763503,1651078729.638,8219
1763504,1651078729.64,8223
1763505,1651078729.642,8226
1763506,1651078729.644,8230
1763507,1651078729.646,8233
1763508,1651078729.648,8236
1763509,1651078729.65,8239
1763510,1651078729.652,8242
1763511,1651078729.654,8245
1763512,1651078729.656,8247
1763513,1651078729.658,8249
1763514,1651078729.66,8250
1763515,1651078729.662,8250
1763516,1651078729.664,8248
1763517,1651078729.666,8245
1763518,1651078729.668,8242
1763519,1651078729.67,8237
1763520,1651078729.672,8232
1763521,1651078729.674,8227
1763522,1651078729.676,8221
1763523,1651078729.678,8215
1763524,1651078729.68,8210
1763525,1651078729.682,8205
1763526,1651078729.684,8201
1763527,1651078729.686,8197
1763528,1651078729.688,8194
1763529,1651078729.69,8192
1763530,1651078729.692,8192
1763531,1651078729.694,8192
1763532,1651078729.696,8193
1763533,1651078729.698,8195
1763534,1651078729.7,8197
1763535,1651078729.702,8199
1763536,1651078729.704,8202
1763537,1651078729.706,8204
1763538,1651078729.708,8205
1763539,1651078729.71,8206
1763540,1651078729.712,8206
1763541,1651078729.714,8206
1763542,1651078729.716,8206
1763543,1651078729.718,8206
1763544,1651078729.72,8205
1763545,1651078729.722,8203
1763546,1651078729.724,8200
1763547,1651078729.726,8197
1763548,1651078729.728,8195
1763549,1651078729.73,8194
1763550,1651078729.732,8193
1763551,1651078729.734,8193
1763552,1651078729.736,8191
1763553,1651078729.738,8189
1763554,1651078729.74,8187
1763555,1651078729.742,8185
1763556,1651078729.744,8183
1763557,1651078729.746,8182
1763558,1651078729.748,8181
1763559,1651078729.75,8180
1763560,1651078729.752,8179
1763561,1651078729.754,8178
1763562,1651078729.756,8178
1763563,1651078729.758,8178
1763564,1651078729.76,8179
1763565,1651078729.762,8180
1763566,1651078729.764,8180
1763567,1651078729.766,8181
1763568,1651078729.768,8180
1763569,1651078729.77,8180
1763570,1651078729.772,8179
1763571,1651078729.774,8178
1763572,1651078729.776,8177
1763573,1651078729.778,8176
1763574,1651078729.78,8176
1763575,1651078729.782,8175
1763576,1651078729.784,8175
1763577,1651078729.786,8176
1763578,1651078729.788,8176
1763579,1651078729.79,8175
1763580,1651078729.792,8171
1763581,1651078729.794,8163
1763582,1651078729.796,8152
1763583,1651078729.798,8140
1763584,1651078729.8,8132
1763585,1651078729.802,8133
1763586,1651078729.804,8146
1763587,1651078729.806,8173
1763588,1651078729.808,8210
1763589,1651078729.81,8252
1763590,1651078729.812,8294
1763591,1651078729.814,8328
1763592,1651078729.816,8336
1763593,1651078729.818,8309
1763594,1651078729.82,8259
1763595,1651078729.822,8210
1763596,1651078729.824,8173
1763597,1651078729.826,8150
1763598,1651078729.828,8132
1763599,1651078729.83,8116
1763600,1651078729.832,8102
1763601,1651078729.834,8088
1763602,1651078729.836,8078
1763603,1651078729.838,8078
1763604,1651078729.84,8088
1763605,1651078729.842,8106
1763606,1651078729.844,8127
1763607,1651078729.846,8147
1763608,1651078729.848,8163
1763609,1651078729.85,8174
1763610,1651078729.852,8180
1763611,1651078729.854,8183
1763612,1651078729.856,8184
1763613,1651078729.858,8184
1763614,1651078729.86,8184
1763615,1651078729.862,8184
1763616,1651078729.864,8185
1763617,1651078729.866,8186
1763618,1651078729.868,8186
1763619,1651078729.87,8187
1763620,1651078729.872,8188
1763621,1651078729.874,8189
1763622,1651078729.876,8190
1763623,1651078729.878,8190
1763624,1651078729.88,8191
1763625,1651078729.882,8192
1763626,1651078729.884,8192
1763627,1651078729.886,8193
1763628,1651078729.888,8194
1763629,1651078729.89,8195
1763630,1651078729.892,8195
1763631,1651078729.894,8195
1763632,1651078729.896,8195
1763633,1651078729.898,8195
1763634,1651078729.9,8195
1763635,1651078729.902,8196
1763636,1651078729.904,8197
1763637,1651078729.906,8197
1763638,1651078729.908,8198
1763639,1651078729.91,8198
1763640,1651078729.912,8198
1763641,1651078729.914,8198
1763642,1651078729.916,8199
1763643,1651078729.918,8200
1763644,1651078729.92,8201
1763645,1651078729.922,8203
1763646,1651078729.924,8205
1763647,1651078729.926,8208
1763648,1651078729.928,8212
1763649,1651078729.93,8215
1763650,1651078729.932,8219
1763651,1651078729.934,8223
1763652,1651078729.936,8226
1763653,1651078729.938,8230
1763654,1651078729.94,8234
1763655,1651078729.942,8237
1763656,1651078729.944,8239
1763657,1651078729.946,8242
1763658,1651078729.948,8244
1763659,1651078729.95,8247
1763660,1651078729.952,8248
1763661,1651078729.954,8249
1763662,1651078729.956,8249
1763663,1651078729.958,8248
1763664,1651078729.96,8245
1763665,1651078729.962,8241
1763666,1651078729.964,8235
1763667,1651078729.966,8230
1763668,1651078729.968,8224
1763669,1651078729.97,8218
1763670,1651078729.972,8213
1763671,1651078729.974,8208
1763672,1651078729.976,8204
1763673,1651078729.978,8199
1763674,1651078729.98,8195
1763675,1651078729.982,8192
1763676,1651078729.984,8191
1763677,1651078729.986,8191
1763678,1651078729.988,8192
1763679,1651078729.99,8193
1763680,1651078729.992,8194
1763681,1651078729.994,8196
1763682,1651078729.996,8198
1763683,1651078729.998,8200
1763684,1651078730.0,8201
1763685,1651078730.002,8203
1763686,1651078730.004,8204
1763687,1651078730.006,8205
1763688,1651078730.008,8204
1763689,1651078730.01,8204
1763690,1651078730.012,8204
1763691,1651078730.014,8204
1763692,1651078730.016,8202
1763693,1651078730.018,8199
1763694,1651078730.02,8196
1763695,1651078730.022,8194
1763696,1651078730.024,8193
1763697,1651078730.026,8192
1763698,1651078730.028,8191
1763699,1651078730.03,8188
1763700,1651078730.032,8186
1763701,1651078730.034,8183
1763702,1651078730.036,8181
1763703,1651078730.038,8179
1763704,1651078730.04,8179
1763705,1651078730.042,8177
1763706,1651078730.044,8176
1763707,1651078730.046,8175
1763708,1651078730.048,8174
1763709,1651078730.05,8174
1763710,1651078730.052,8173
1763711,1651078730.054,8173
1763712,1651078730.056,8172
1763713,1651078730.058,8171
1763714,1651078730.06,8170
1763715,1651078730.062,8170
1763716,1651078730.064,8170
1763717,1651078730.066,8170
1763718,1651078730.068,8170
1763719,1651078730.07,8169
1763720,1651078730.072,8169
1763721,1651078730.074,8168
1763722,1651078730.076,8168
1763723,1651078730.078,8168
1763724,1651078730.08,8168
1763725,1651078730.082,8168
1763726,1651078730.084,8167
1763727,1651078730.086,8164
1763728,1651078730.088,8157
1763729,1651078730.09,8145
1763730,1651078730.092,8133
1763731,1651078730.094,8126
1763732,1651078730.096,8128
1763733,1651078730.098,8143
1763734,1651078730.1,8173
1763735,1651078730.102,8211
1763736,1651078730.104,8251
1763737,1651078730.106,8291
1763738,1651078730.108,8322
1763739,1651078730.11,8328
1763740,1651078730.112,8300
1763741,1651078730.114,8249
1763742,1651078730.116,8198
1763743,1651078730.118,8161
1763744,1651078730.12,8137
1763745,1651078730.122,8118
1763746,1651078730.124,8103
1763747,1651078730.126,8090
1763748,1651078730.128,8077
1763749,1651078730.13,8069
1763750,1651078730.132,8070
1763751,1651078730.134,8081
1763752,1651078730.136,8100
1763753,1651078730.138,8123
1763754,1651078730.14,8144
1763755,1651078730.142,8160
1763756,1651078730.144,8169
1763757,1651078730.146,8174
1763758,1651078730.148,8176
1763759,1651078730.15,8177
1763760,1651078730.152,8178
1763761,1651078730.154,8178
1763762,1651078730.156,8179
1763763,1651078730.158,8179
1763764,1651078730.16,8180
1763765,1651078730.162,8180
1763766,1651078730.164,8181
1763767,1651078730.166,8181
1763768,1651078730.168,8182
1763769,1651078730.17,8182
1763770,1651078730.172,8183
1763771,1651078730.174,8183
1763772,1651078730.176,8184
1763773,1651078730.178,8185
1763774,1651078730.18,8186
1763775,1651078730.182,8186
1763776,1651078730.184,8186
1763777,1651078730.186,8187
1763778,1651078730.188,8187
1763779,1651078730.19,8187
1763780,1651078730.192,8187
1763781,1651078730.194,8187
1763782,1651078730.196,8188
1763783,1651078730.198,8188
1763784,1651078730.2,8189
1763785,1651078730.202,8189
1763786,1651078730.204,8190
1763787,1651078730.206,8190
1763788,1651078730.208,8191
1763789,1651078730.21,8192
1763790,1651078730.212,8193
1763791,1651078730.214,8195
1763792,1651078730.216,8197
1763793,1651078730.218,8200
1763794,1651078730.22,8204
1763795,1651078730.222,8208
1763796,1651078730.224,8212
1763797,1651078730.226,8215
1763798,1651078730.228,8219
1763799,1651078730.23,8223
1763800,1651078730.232,8226
1763801,1651078730.234,8229
1763802,1651078730.236,8232
1763803,1651078730.238,8234
1763804,1651078730.24,8237
1763805,1651078730.242,8240
1763806,1651078730.244,8242
1763807,1651078730.246,8243
1763808,1651078730.248,8243
1763809,1651078730.25,8243
1763810,1651078730.252,8241
1763811,1651078730.254,8238
1763812,1651078730.256,8235
1763813,1651078730.258,8230
1763814,1651078730.26,8225
1763815,1651078730.262,8219
1763816,1651078730.264,8212
1763817,1651078730.266,8206
1763818,1651078730.268,8201
1763819,1651078730.27,8197
1763820,1651078730.272,8193
1763821,1651078730.274,8189
1763822,1651078730.276,8187
1763823,1651078730.278,8187
1763824,1651078730.28,8187
1763825,1651078730.282,8188
1763826,1651078730.284,8190
1763827,1651078730.286,8191
1763828,1651078730.288,8194
1763829,1651078730.29,8196
1763830,1651078730.292,8198
1763831,1651078730.294,8199
1763832,1651078730.296,8200
1763833,1651078730.298,8201
1763834,1651078730.3,8201
1763835,1651078730.302,8201
1763836,1651078730.304,8201
1763837,1651078730.306,8201
1763838,1651078730.308,8199
1763839,1651078730.31,8197
1763840,1651078730.312,8194
1763841,1651078730.314,8191
1763842,1651078730.316,8190
1763843,1651078730.318,8189
1763844,1651078730.32,8188
1763845,1651078730.322,8187
1763846,1651078730.324,8184
1763847,1651078730.326,8181
1763848,1651078730.328,8178
1763849,1651078730.33,8176
1763850,1651078730.332,8175
1763851,1651078730.334,8175
1763852,1651078730.336,8174
1763853,1651078730.338,8173
1763854,1651078730.34,8173
1763855,1651078730.342,8173
1763856,1651078730.344,8173
1763857,1651078730.346,8172
1763858,1651078730.348,8172
1763859,1651078730.35,8171
1763860,1651078730.352,8171
1763861,1651078730.354,8171
1763862,1651078730.356,8170
1763863,1651078730.358,8170
1763864,1651078730.36,8169
1763865,1651078730.362,8168
1763866,1651078730.364,8168
1763867,1651078730.366,8168
1763868,1651078730.368,8168
1763869,1651078730.37,8167
1763870,1651078730.372,8167
1763871,1651078730.374,8167
1763872,1651078730.376,8167
1763873,1651078730.378,8165
1763874,1651078730.38,8161
1763875,1651078730.382,8152
1763876,1651078730.384,8140
1763877,1651078730.386,8128
1763878,1651078730.388,8121
1763879,1651078730.39,8124
1763880,1651078730.392,8142
1763881,1651078730.394,8174
1763882,1651078730.396,8215
1763883,1651078730.398,8261
1763884,1651078730.4,8305
1763885,1651078730.402,8336
1763886,1651078730.404,8335
1763887,1651078730.406,8298
1763888,1651078730.408,8241
1763889,1651078730.41,8189
1763890,1651078730.412,8153
1763891,1651078730.414,8130
1763892,1651078730.416,8113
1763893,1651078730.418,8098
1763894,1651078730.42,8084
1763895,1651078730.422,8072
1763896,1651078730.424,8068
1763897,1651078730.426,8074
1763898,1651078730.428,8090
1763899,1651078730.43,8111
1763900,1651078730.432,8132
1763901,1651078730.434,8150
1763902,1651078730.436,8163
1763903,1651078730.438,8170
1763904,1651078730.44,8174
1763905,1651078730.442,8176
1763906,1651078730.444,8176
1763907,1651078730.446,8176
1763908,1651078730.448,8177
1763909,1651078730.45,8177
1763910,1651078730.452,8178
1763911,1651078730.454,8179
1763912,1651078730.456,8179
1763913,1651078730.458,8179
1763914,1651078730.46,8179
1763915,1651078730.462,8179
1763916,1651078730.464,8179
1763917,1651078730.466,8179
1763918,1651078730.468,8180
1763919,1651078730.47,8181
1763920,1651078730.472,8182
1763921,1651078730.474,8182
1763922,1651078730.476,8182
1763923,1651078730.478,8182
1763924,1651078730.48,8183
1763925,1651078730.482,8183
1763926,1651078730.484,8184
1763927,1651078730.486,8185
1763928,1651078730.488,8186
1763929,1651078730.49,8187
1763930,1651078730.492,8188
1763931,1651078730.494,8188
1763932,1651078730.496,8189
1763933,1651078730.498,8190
1763934,1651078730.5,8191
1763935,1651078730.502,8193
1763936,1651078730.504,8194
1763937,1651078730.506,8196
1763938,1651078730.508,8197
1763939,1651078730.51,8199
1763940,1651078730.512,8201
1763941,1651078730.514,8205
1763942,1651078730.516,8208
1763943,1651078730.518,8212
1763944,1651078730.52,8215
1763945,1651078730.522,8219
1763946,1651078730.524,8223
1763947,1651078730.526,8226
1763948,1651078730.528,8229
1763949,1651078730.53,8232
1763950,1651078730.532,8235
1763951,1651078730.534,8238
1763952,1651078730.536,8241
1763953,1651078730.538,8243
1763954,1651078730.54,8245
1763955,1651078730.542,8245
1763956,1651078730.544,8244
1763957,1651078730.546,8242
1763958,1651078730.548,8239
1763959,1651078730.55,8235
1763960,1651078730.552,8230
1763961,1651078730.554,8225
1763962,1651078730.556,8220
1763963,1651078730.558,8214
1763964,1651078730.56,8209
1763965,1651078730.562,8204
1763966,1651078730.564,8199
1763967,1651078730.566,8195
1763968,1651078730.568,8192
1763969,1651078730.57,8190
1763970,1651078730.572,8190
1763971,1651078730.574,8190
1763972,1651078730.576,8192
1763973,1651078730.578,8194
1763974,1651078730.58,8196
1763975,1651078730.582,8199
1763976,1651078730.584,8201
1763977,1651078730.586,8203
1763978,1651078730.588,8205
1763979,1651078730.59,8206
1763980,1651078730.592,8207
1763981,1651078730.594,8208
1763982,1651078730.596,8208
1763983,1651078730.598,8208
1763984,1651078730.6,8207
1763985,1651078730.602,8204
1763986,1651078730.604,8201
1763987,1651078730.606,8198
1763988,1651078730.608,8196
1763989,1651078730.61,8195
1763990,1651078730.612,8194
1763991,1651078730.614,8193
1763992,1651078730.616,8191
1763993,1651078730.618,8188
1763994,1651078730.62,8186
1763995,1651078730.622,8184
1763996,1651078730.624,8182
1763997,1651078730.626,8181
1763998,1651078730.628,8181
1763999,1651078730.63,8180
1764000,1651078730.632,8179
1764001,1651078730.634,8179
1764002,1651078730.636,8178
1764003,1651078730.638,8178
1764004,1651078730.64,8178
1764005,1651078730.642,8177
1764006,1651078730.644,8177
1764007,1651078730.646,8177
1764008,1651078730.648,8177
1764009,1651078730.65,8176
1764010,1651078730.652,8176
1764011,1651078730.654,8176
1764012,1651078730.656,8176
1764013,1651078730.658,8176
1764014,1651078730.66,8176
1764015,1651078730.662,8176
1764016,1651078730.664,8176
1764017,1651078730.666,8176
1764018,1651078730.668,8176
1764019,1651078730.67,8176
1764020,1651078730.672,8174
1764021,1651078730.674,8169
1764022,1651078730.676,8159
1764023,1651078730.678,8146
1764024,1651078730.68,8135
1764025,1651078730.682,8131
1764026,1651078730.684,8141
1764027,1651078730.686,8167
1764028,1651078730.688,8203
1764029,1651078730.69,8243
1764030,1651078730.692,8285
1764031,1651078730.694,8324
1764032,1651078730.696,8349
1764033,1651078730.698,8341
1764034,1651078730.7,8297
1764035,1651078730.702,8239
1764036,1651078730.704,8189
1764037,1651078730.706,8156
1764038,1651078730.708,8134
1764039,1651078730.71,8118
1764040,1651078730.712,8103
1764041,1651078730.714,8091
1764042,1651078730.716,8081
1764043,1651078730.718,8080
1764044,1651078730.72,8090
1764045,1651078730.722,8109
1764046,1651078730.724,8131
1764047,1651078730.726,8152
1764048,1651078730.728,8168
1764049,1651078730.73,8178
1764050,1651078730.732,8184
1764051,1651078730.734,8186
1764052,1651078730.736,8186
1764053,1651078730.738,8187
1764054,1651078730.74,8187
1764055,1651078730.742,8187
1764056,1651078730.744,8188
1764057,1651078730.746,8188
1764058,1651078730.748,8189
1764059,1651078730.75,8190
1764060,1651078730.752,8190
1764061,1651078730.754,8191
1764062,1651078730.756,8191
1764063,1651078730.758,8192
1764064,1651078730.76,8193
1764065,1651078730.762,8193
1764066,1651078730.764,8194
1764067,1651078730.766,8195
1764068,1651078730.768,8196
1764069,1651078730.77,8197
1764070,1651078730.772,8198
1764071,1651078730.774,8198
1764072,1651078730.776,8199
1764073,1651078730.778,8199
1764074,1651078730.78,8200
1764075,1651078730.782,8201
1764076,1651078730.784,8201
1764077,1651078730.786,8202
1764078,1651078730.788,8202
1764079,1651078730.79,8202
1764080,1651078730.792,8203
1764081,1651078730.794,8204
1764082,1651078730.796,8205
1764083,1651078730.798,8207
1764084,1651078730.8,8208
1764085,1651078730.802,8211
1764086,1651078730.804,8214
1764087,1651078730.806,8217
1764088,1651078730.808,8221
1764089,1651078730.81,8225
1764090,1651078730.812,8229
1764091,1651078730.814,8233
1764092,1651078730.816,8236
1764093,1651078730.818,8240
1764094,1651078730.82,8243
1764095,1651078730.822,8246
1764096,1651078730.824,8249
1764097,1651078730.826,8252
1764098,1651078730.828,8255
1764099,1651078730.83,8258
1764100,1651078730.832,8259
1764101,1651078730.834,8260
1764102,1651078730.836,8260
1764103,1651078730.838,8259
1764104,1651078730.84,8257
1764105,1651078730.842,8253
1764106,1651078730.844,8249
1764107,1651078730.846,8244
1764108,1651078730.848,8238
1764109,1651078730.85,8232
1764110,1651078730.852,8226
1764111,1651078730.854,8221
1764112,1651078730.856,8216
1764113,1651078730.858,8211
1764114,1651078730.86,8206
1764115,1651078730.862,8203
1764116,1651078730.864,8201
1764117,1651078730.866,8200
1764118,1651078730.868,8201
1764119,1651078730.87,8202
1764120,1651078730.872,8204
1764121,1651078730.874,8205
1764122,1651078730.876,8207
1764123,1651078730.878,8209
1764124,1651078730.88,8210
1764125,1651078730.882,8211
1764126,1651078730.884,8212
1764127,1651078730.886,8213
1764128,1651078730.888,8213
1764129,1651078730.89,8213
1764130,1651078730.892,8212
1764131,1651078730.894,8211
1764132,1651078730.896,8209
1764133,1651078730.898,8206
1764134,1651078730.9,8202
1764135,1651078730.902,8199
1764136,1651078730.904,8198
1764137,1651078730.906,8196
1764138,1651078730.908,8195
1764139,1651078730.91,8193
1764140,1651078730.912,8190
1764141,1651078730.914,8187
1764142,1651078730.916,8184
1764143,1651078730.918,8182
1764144,1651078730.92,8180
1764145,1651078730.922,8179
1764146,1651078730.924,8178
1764147,1651078730.926,8177
1764148,1651078730.928,8176
1764149,1651078730.93,8175
1764150,1651078730.932,8174
1764151,1651078730.934,8173
1764152,1651078730.936,8173
1764153,1651078730.938,8172
1764154,1651078730.94,8172
1764155,1651078730.942,8172
1764156,1651078730.944,8171
1764157,1651078730.946,8171
1764158,1651078730.948,8170
1764159,1651078730.95,8170
1764160,1651078730.952,8170
1764161,1651078730.954,8170
1764162,1651078730.956,8170
1764163,1651078730.958,8170
1764164,1651078730.96,8170
1764165,1651078730.962,8170
1764166,1651078730.964,8169
1764167,1651078730.966,8165
1764168,1651078730.968,8158
1764169,1651078730.97,8147
1764170,1651078730.972,8133
1764171,1651078730.974,8123
1764172,1651078730.976,8121
1764173,1651078730.978,8131
1764174,1651078730.98,8156
1764175,1651078730.982,8192
1764176,1651078730.984,8233
1764177,1651078730.986,8275
1764178,1651078730.988,8311
1764179,1651078730.99,8325
1764180,1651078730.992,8305
1764181,1651078730.994,8259
1764182,1651078730.996,8208
1764183,1651078730.998,8169
1764184,1651078731.0,8143
1764185,1651078731.002,8124
1764186,1651078731.004,8108
1764187,1651078731.006,8092
1764188,1651078731.008,8078
1764189,1651078731.01,8067
1764190,1651078731.012,8065
1764191,1651078731.014,8076
1764192,1651078731.016,8093
1764193,1651078731.018,8114
1764194,1651078731.02,8135
1764195,1651078731.022,8152
1764196,1651078731.024,8164
1764197,1651078731.026,8170
1764198,1651078731.028,8173
1764199,1651078731.03,8174
1764200,1651078731.032,8174
1764201,1651078731.034,8175
1764202,1651078731.036,8175
1764203,1651078731.038,8176
1764204,1651078731.04,8177
1764205,1651078731.042,8178
1764206,1651078731.044,8178
1764207,1651078731.046,8179
1764208,1651078731.048,8179
1764209,1651078731.05,8180
1764210,1651078731.052,8180
1764211,1651078731.054,8181
1764212,1651078731.056,8182
1764213,1651078731.058,8182
1764214,1651078731.06,8183
1764215,1651078731.062,8183
1764216,1651078731.064,8184
1764217,1651078731.066,8185
1764218,1651078731.068,8186
1764219,1651078731.07,8186
1764220,1651078731.072,8187
1764221,1651078731.074,8188
1764222,1651078731.076,8188
1764223,1651078731.078,8189
1764224,1651078731.08,8189
1764225,1651078731.082,8190
1764226,1651078731.084,8192
1764227,1651078731.086,8193
1764228,1651078731.088,8194
1764229,1651078731.09,8195
1764230,1651078731.092,8197
1764231,1651078731.094,8199
1764232,1651078731.096,8201
1764233,1651078731.098,8204
1764234,1651078731.1,8208
1764235,1651078731.102,8211
1764236,1651078731.104,8215
1764237,1651078731.106,8219
1764238,1651078731.108,8223
1764239,1651078731.11,8226
1764240,1651078731.112,8230
1764241,1651078731.114,8234
1764242,1651078731.116,8237
1764243,1651078731.118,8240
1764244,1651078731.12,8243
1764245,1651078731.122,8246
1764246,1651078731.124,8249
1764247,1651078731.126,8250
1764248,1651078731.128,8252
1764249,1651078731.13,8252
1764250,1651078731.132,8251
1764251,1651078731.134,8248
1764252,1651078731.136,8244
1764253,1651078731.138,8239
1764254,1651078731.14,8233
1764255,1651078731.142,8227
1764256,1651078731.144,8221
1764257,1651078731.146,8215
1764258,1651078731.148,8209
1764259,1651078731.15,8204
1764260,1651078731.152,8199
1764261,1651078731.154,8195
1764262,1651078731.156,8192
1764263,1651078731.158,8190
1764264,1651078731.16,8189
1764265,1651078731.162,8190
1764266,1651078731.164,8191
1764267,1651078731.166,8193
1764268,1651078731.168,8195
1764269,1651078731.17,8197
1764270,1651078731.172,8199
1764271,1651078731.174,8200
1764272,1651078731.176,8201
1764273,1651078731.178,8202
1764274,1651078731.18,8202
1764275,1651078731.182,8203
1764276,1651078731.184,8203
1764277,1651078731.186,8203
1764278,1651078731.188,8203
1764279,1651078731.19,8201
1764280,1651078731.192,8199
1764281,1651078731.194,8196
1764282,1651078731.196,8194
1764283,1651078731.198,8193
1764284,1651078731.2,8192
1764285,1651078731.202,8190
1764286,1651078731.204,8188
1764287,1651078731.206,8186
1764288,1651078731.208,8184
1764289,1651078731.21,8181
1764290,1651078731.212,8180
1764291,1651078731.214,8178
1764292,1651078731.216,8177
1764293,1651078731.218,8176
1764294,1651078731.22,8176
1764295,1651078731.222,8175
1764296,1651078731.224,8175
1764297,1651078731.226,8175
1764298,1651078731.228,8175
1764299,1651078731.23,8175
1764300,1651078731.232,8175
1764301,1651078731.234,8174
1764302,1651078731.236,8173
1764303,1651078731.238,8173
1764304,1651078731.24,8173
1764305,1651078731.242,8173
1764306,1651078731.244,8173
1764307,1651078731.246,8173
1764308,1651078731.248,8173
1764309,1651078731.25,8173
1764310,1651078731.252,8172
1764311,1651078731.254,8172
1764312,1651078731.256,8173
1764313,1651078731.258,8172
1764314,1651078731.26,8169
1764315,1651078731.262,8162
1764316,1651078731.264,8151
1764317,1651078731.266,8139
1764318,1651078731.268,8130
