,times,values
0,1624384800.104,8341
1,1624384800.106,8341
2,1624384800.108,8338
3,1624384800.11,8334
4,1624384800.112,8328
5,1624384800.114,8322
6,1624384800.116,8316
7,1624384800.118,8308
8,1624384800.12,8298
9,1624384800.122,8288
10,1624384800.124,8279
11,1624384800.126,8273
12,1624384800.128,8269
13,1624384800.13,8265
14,1624384800.132,8260
15,1624384800.134,8255
16,1624384800.136,8249
17,1624384800.138,8246
18,1624384800.14,8245
19,1624384800.142,8245
20,1624384800.144,8246
21,1624384800.146,8245
22,1624384800.148,8243
23,1624384800.15,8242
24,1624384800.152,8240
25,1624384800.154,8238
26,1624384800.156,8237
27,1624384800.158,8237
28,1624384800.16,8236
29,1624384800.162,8234
30,1624384800.164,8231
31,1624384800.166,8229
32,1624384800.168,8227
33,1624384800.17,8224
34,1624384800.172,8219
35,1624384800.174,8212
36,1624384800.176,8205
37,1624384800.178,8198
38,1624384800.18,8194
39,1624384800.182,8191
40,1624384800.184,8192
41,1624384800.186,8195
42,1624384800.188,8198
43,1624384800.19,8199
44,1624384800.192,8200
45,1624384800.194,8199
46,1624384800.196,8196
47,1624384800.198,8193
48,1624384800.2,8188
49,1624384800.202,8183
50,1624384800.204,8177
51,1624384800.206,8171
52,1624384800.208,8165
53,1624384800.21,8158
54,1624384800.212,8151
55,1624384800.214,8146
56,1624384800.216,8142
57,1624384800.218,8139
58,1624384800.22,8136
59,1624384800.222,8131
60,1624384800.224,8124
61,1624384800.226,8114
62,1624384800.228,8104
63,1624384800.23,8095
64,1624384800.232,8087
65,1624384800.234,8079
66,1624384800.236,8071
67,1624384800.238,8064
68,1624384800.24,8057
69,1624384800.242,8051
70,1624384800.244,8045
71,1624384800.246,8039
72,1624384800.248,8032
73,1624384800.25,8023
74,1624384800.252,8014
75,1624384800.254,8008
76,1624384800.256,8005
77,1624384800.258,8004
78,1624384800.26,8005
79,1624384800.262,8004
80,1624384800.264,8004
81,1624384800.266,8003
82,1624384800.268,8001
83,1624384800.27,7998
84,1624384800.272,7994
85,1624384800.274,7990
86,1624384800.276,7987
87,1624384800.278,7987
88,1624384800.28,7988
89,1624384800.282,7990
90,1624384800.284,7991
91,1624384800.286,7992
92,1624384800.288,7992
93,1624384800.29,7993
94,1624384800.292,7995
95,1624384800.294,8000
96,1624384800.296,8006
97,1624384800.298,8012
98,1624384800.3,8019
99,1624384800.302,8025
100,1624384800.304,8032
101,1624384800.306,8038
102,1624384800.308,8043
103,1624384800.31,8046
104,1624384800.312,8047
105,1624384800.314,8048
106,1624384800.316,8050
107,1624384800.318,8051
108,1624384800.32,8053
109,1624384800.322,8056
110,1624384800.324,8059
111,1624384800.326,8062
112,1624384800.328,8065
113,1624384800.33,8068
114,1624384800.332,8072
115,1624384800.334,8077
116,1624384800.336,8082
117,1624384800.338,8086
118,1624384800.34,8090
119,1624384800.342,8093
120,1624384800.344,8097
121,1624384800.346,8102
122,1624384800.348,8106
123,1624384800.35,8109
124,1624384800.352,8110
125,1624384800.354,8111
126,1624384800.356,8113
127,1624384800.358,8116
128,1624384800.36,8120
129,1624384800.362,8126
130,1624384800.364,8130
131,1624384800.366,8134
132,1624384800.368,8137
133,1624384800.37,8138
134,1624384800.372,8139
135,1624384800.374,8142
136,1624384800.376,8146
137,1624384800.378,8152
138,1624384800.38,8157
139,1624384800.382,8161
140,1624384800.384,8165
141,1624384800.386,8168
142,1624384800.388,8172
143,1624384800.39,8178
144,1624384800.392,8184
145,1624384800.394,8188
146,1624384800.396,8188
147,1624384800.398,8185
148,1624384800.4,8182
149,1624384800.402,8180
150,1624384800.404,8179
151,1624384800.406,8180
152,1624384800.408,8183
153,1624384800.41,8185
154,1624384800.412,8186
155,1624384800.414,8185
156,1624384800.416,8183
157,1624384800.418,8179
158,1624384800.42,8175
159,1624384800.422,8171
160,1624384800.424,8169
161,1624384800.426,8169
162,1624384800.428,8173
163,1624384800.43,8178
164,1624384800.432,8185
165,1624384800.434,8192
166,1624384800.436,8198
167,1624384800.438,8204
168,1624384800.44,8209
169,1624384800.442,8212
170,1624384800.444,8216
171,1624384800.446,8218
172,1624384800.448,8220
173,1624384800.45,8222
174,1624384800.452,8222
175,1624384800.454,8222
176,1624384800.456,8222
177,1624384800.458,8222
178,1624384800.46,8221
179,1624384800.462,8220
180,1624384800.464,8217
181,1624384800.466,8215
182,1624384800.468,8215
183,1624384800.47,8216
184,1624384800.472,8217
185,1624384800.474,8216
186,1624384800.476,8212
187,1624384800.478,8205
188,1624384800.48,8196
189,1624384800.482,8188
190,1624384800.484,8179
191,1624384800.486,8170
192,1624384800.488,8160
193,1624384800.49,8151
194,1624384800.492,8141
195,1624384800.494,8132
196,1624384800.496,8124
197,1624384800.498,8116
198,1624384800.5,8108
199,1624384800.502,8100
200,1624384800.504,8093
201,1624384800.506,8087
202,1624384800.508,8083
203,1624384800.51,8080
204,1624384800.512,8079
205,1624384800.514,8081
206,1624384800.516,8086
207,1624384800.518,8093
208,1624384800.52,8101
209,1624384800.522,8110
210,1624384800.524,8120
211,1624384800.526,8130
212,1624384800.528,8139
213,1624384800.53,8148
214,1624384800.532,8156
215,1624384800.534,8163
216,1624384800.536,8168
217,1624384800.538,8172
218,1624384800.54,8176
219,1624384800.542,8179
220,1624384800.544,8180
221,1624384800.546,8183
222,1624384800.548,8186
223,1624384800.55,8188
224,1624384800.552,8190
225,1624384800.554,8191
226,1624384800.556,8193
227,1624384800.558,8196
228,1624384800.56,8199
229,1624384800.562,8200
230,1624384800.564,8202
231,1624384800.566,8202
232,1624384800.568,8203
233,1624384800.57,8204
234,1624384800.572,8206
235,1624384800.574,8209
236,1624384800.576,8213
237,1624384800.578,8216
238,1624384800.58,8219
239,1624384800.582,8221
240,1624384800.584,8220
241,1624384800.586,8219
242,1624384800.588,8219
243,1624384800.59,8218
244,1624384800.592,8216
245,1624384800.594,8214
246,1624384800.596,8212
247,1624384800.598,8211
248,1624384800.6,8212
249,1624384800.602,8214
250,1624384800.604,8217
251,1624384800.606,8219
252,1624384800.608,8220
253,1624384800.61,8221
254,1624384800.612,8221
255,1624384800.614,8221
256,1624384800.616,8223
257,1624384800.618,8224
258,1624384800.62,8224
259,1624384800.622,8221
260,1624384800.624,8218
261,1624384800.626,8216
262,1624384800.628,8214
263,1624384800.63,8213
264,1624384800.632,8210
265,1624384800.634,8206
266,1624384800.636,8202
267,1624384800.638,8198
268,1624384800.64,8193
269,1624384800.642,8189
270,1624384800.644,8187
271,1624384800.646,8185
272,1624384800.648,8185
273,1624384800.65,8185
274,1624384800.652,8185
275,1624384800.654,8185
276,1624384800.656,8184
277,1624384800.658,8182
278,1624384800.66,8178
279,1624384800.662,8172
280,1624384800.664,8165
281,1624384800.666,8161
282,1624384800.668,8159
283,1624384800.67,8160
284,1624384800.672,8160
285,1624384800.674,8160
286,1624384800.676,8159
287,1624384800.678,8157
288,1624384800.68,8154
289,1624384800.682,8150
290,1624384800.684,8145
291,1624384800.686,8139
292,1624384800.688,8132
293,1624384800.69,8125
294,1624384800.692,8117
295,1624384800.694,8110
296,1624384800.696,8103
297,1624384800.698,8097
298,1624384800.7,8091
299,1624384800.702,8085
300,1624384800.704,8080
301,1624384800.706,8077
302,1624384800.708,8074
303,1624384800.71,8070
304,1624384800.712,8065
305,1624384800.714,8060
306,1624384800.716,8055
307,1624384800.718,8051
308,1624384800.72,8048
309,1624384800.722,8046
310,1624384800.724,8044
311,1624384800.726,8041
312,1624384800.728,8038
313,1624384800.73,8034
314,1624384800.732,8030
315,1624384800.734,8025
316,1624384800.736,8020
317,1624384800.738,8017
318,1624384800.74,8016
319,1624384800.742,8018
320,1624384800.744,8021
321,1624384800.746,8022
322,1624384800.748,8022
323,1624384800.75,8021
324,1624384800.752,8019
325,1624384800.754,8018
326,1624384800.756,8016
327,1624384800.758,8014
328,1624384800.76,8013
329,1624384800.762,8014
330,1624384800.764,8014
331,1624384800.766,8016
332,1624384800.768,8018
333,1624384800.77,8020
334,1624384800.772,8023
335,1624384800.774,8027
336,1624384800.776,8033
337,1624384800.778,8042
338,1624384800.78,8049
339,1624384800.782,8055
340,1624384800.784,8059
341,1624384800.786,8061
342,1624384800.788,8062
343,1624384800.79,8066
344,1624384800.792,8071
345,1624384800.794,8079
346,1624384800.796,8086
347,1624384800.798,8092
348,1624384800.8,8098
349,1624384800.802,8104
350,1624384800.804,8111
351,1624384800.806,8117
352,1624384800.808,8125
353,1624384800.81,8133
354,1624384800.812,8141
355,1624384800.814,8149
356,1624384800.816,8155
357,1624384800.818,8160
358,1624384800.82,8164
359,1624384800.822,8168
360,1624384800.824,8173
361,1624384800.826,8178
362,1624384800.828,8183
363,1624384800.83,8188
364,1624384800.832,8192
365,1624384800.834,8195
366,1624384800.836,8197
367,1624384800.838,8197
368,1624384800.84,8196
369,1624384800.842,8194
370,1624384800.844,8193
371,1624384800.846,8192
372,1624384800.848,8193
373,1624384800.85,8195
374,1624384800.852,8198
375,1624384800.854,8200
376,1624384800.856,8201
377,1624384800.858,8202
378,1624384800.86,8203
379,1624384800.862,8205
380,1624384800.864,8211
381,1624384800.866,8219
382,1624384800.868,8229
383,1624384800.87,8239
384,1624384800.872,8246
385,1624384800.874,8249
386,1624384800.876,8251
387,1624384800.878,8250
388,1624384800.88,8249
389,1624384800.882,8247
390,1624384800.884,8245
391,1624384800.886,8241
392,1624384800.888,8235
393,1624384800.89,8230
394,1624384800.892,8228
395,1624384800.894,8232
396,1624384800.896,8237
397,1624384800.898,8243
398,1624384800.9,8248
399,1624384800.902,8252
400,1624384800.904,8255
401,1624384800.906,8256
402,1624384800.908,8256
403,1624384800.91,8253
404,1624384800.912,8251
405,1624384800.914,8248
406,1624384800.916,8245
407,1624384800.918,8241
408,1624384800.92,8238
409,1624384800.922,8234
410,1624384800.924,8231
411,1624384800.926,8228
412,1624384800.928,8225
413,1624384800.93,8220
414,1624384800.932,8214
415,1624384800.934,8207
416,1624384800.936,8203
417,1624384800.938,8200
418,1624384800.94,8199
419,1624384800.942,8198
420,1624384800.944,8196
421,1624384800.946,8193
422,1624384800.948,8189
423,1624384800.95,8183
424,1624384800.952,8178
425,1624384800.954,8174
426,1624384800.956,8172
427,1624384800.958,8171
428,1624384800.96,8171
429,1624384800.962,8170
430,1624384800.964,8169
431,1624384800.966,8167
432,1624384800.968,8165
433,1624384800.97,8163
434,1624384800.972,8161
435,1624384800.974,8160
436,1624384800.976,8160
437,1624384800.978,8162
438,1624384800.98,8166
439,1624384800.982,8171
440,1624384800.984,8177
441,1624384800.986,8183
442,1624384800.988,8188
443,1624384800.99,8192
444,1624384800.992,8195
445,1624384800.994,8199
446,1624384800.996,8202
447,1624384800.998,8206
448,1624384801.0,8208
449,1624384801.002,8210
450,1624384801.004,8213
451,1624384801.006,8215
452,1624384801.008,8217
453,1624384801.01,8215
454,1624384801.012,8212
455,1624384801.014,8208
456,1624384801.016,8205
457,1624384801.018,8205
458,1624384801.02,8206
459,1624384801.022,8207
460,1624384801.024,8206
461,1624384801.026,8204
462,1624384801.028,8200
463,1624384801.03,8198
464,1624384801.032,8196
465,1624384801.034,8194
466,1624384801.036,8194
467,1624384801.038,8196
468,1624384801.04,8199
469,1624384801.042,8203
470,1624384801.044,8205
471,1624384801.046,8206
472,1624384801.048,8207
473,1624384801.05,8209
474,1624384801.052,8213
475,1624384801.054,8217
476,1624384801.056,8220
477,1624384801.058,8221
478,1624384801.06,8221
479,1624384801.062,8219
480,1624384801.064,8216
481,1624384801.066,8212
482,1624384801.068,8209
483,1624384801.07,8206
484,1624384801.072,8205
485,1624384801.074,8207
486,1624384801.076,8212
487,1624384801.078,8217
488,1624384801.08,8220
489,1624384801.082,8222
490,1624384801.084,8222
491,1624384801.086,8221
492,1624384801.088,8219
493,1624384801.09,8216
494,1624384801.092,8211
495,1624384801.094,8204
496,1624384801.096,8195
497,1624384801.098,8186
498,1624384801.1,8181
499,1624384801.102,8177
500,1624384801.104,8173
501,1624384801.106,8170
502,1624384801.108,8167
503,1624384801.11,8165
504,1624384801.112,8165
505,1624384801.114,8166
506,1624384801.116,8167
507,1624384801.118,8167
508,1624384801.12,8167
509,1624384801.122,8167
510,1624384801.124,8168
511,1624384801.126,8168
512,1624384801.128,8167
513,1624384801.13,8162
514,1624384801.132,8154
515,1624384801.134,8143
516,1624384801.136,8133
517,1624384801.138,8123
518,1624384801.14,8115
519,1624384801.142,8108
520,1624384801.144,8100
521,1624384801.146,8090
522,1624384801.148,8080
523,1624384801.15,8073
524,1624384801.152,8068
525,1624384801.154,8066
526,1624384801.156,8064
527,1624384801.158,8062
528,1624384801.16,8060
529,1624384801.162,8059
530,1624384801.164,8059
531,1624384801.166,8061
532,1624384801.168,8063
533,1624384801.17,8065
534,1624384801.172,8066
535,1624384801.174,8066
536,1624384801.176,8066
537,1624384801.178,8065
538,1624384801.18,8064
539,1624384801.182,8061
540,1624384801.184,8056
541,1624384801.186,8052
542,1624384801.188,8051
543,1624384801.19,8051
544,1624384801.192,8052
545,1624384801.194,8052
546,1624384801.196,8052
547,1624384801.198,8052
548,1624384801.2,8052
549,1624384801.202,8053
550,1624384801.204,8056
551,1624384801.206,8060
552,1624384801.208,8066
553,1624384801.21,8072
554,1624384801.212,8075
555,1624384801.214,8077
556,1624384801.216,8079
557,1624384801.218,8081
558,1624384801.22,8083
559,1624384801.222,8087
560,1624384801.224,8090
561,1624384801.226,8094
562,1624384801.228,8099
563,1624384801.23,8104
564,1624384801.232,8108
565,1624384801.234,8113
566,1624384801.236,8118
567,1624384801.238,8122
568,1624384801.24,8126
569,1624384801.242,8128
570,1624384801.244,8130
571,1624384801.246,8133
572,1624384801.248,8135
573,1624384801.25,8140
574,1624384801.252,8146
575,1624384801.254,8155
576,1624384801.256,8164
577,1624384801.258,8172
578,1624384801.26,8177
579,1624384801.262,8179
580,1624384801.264,8179
581,1624384801.266,8179
582,1624384801.268,8178
583,1624384801.27,8179
584,1624384801.272,8179
585,1624384801.274,8180
586,1624384801.276,8181
587,1624384801.278,8181
588,1624384801.28,8181
589,1624384801.282,8180
590,1624384801.284,8177
591,1624384801.286,8174
592,1624384801.288,8172
593,1624384801.29,8171
594,1624384801.292,8173
595,1624384801.294,8177
596,1624384801.296,8183
597,1624384801.298,8191
598,1624384801.3,8200
599,1624384801.302,8209
600,1624384801.304,8216
601,1624384801.306,8220
602,1624384801.308,8221
603,1624384801.31,8221
604,1624384801.312,8221
605,1624384801.314,8220
606,1624384801.316,8220
607,1624384801.318,8218
608,1624384801.32,8215
609,1624384801.322,8211
610,1624384801.324,8208
611,1624384801.326,8209
612,1624384801.328,8214
613,1624384801.33,8221
614,1624384801.332,8226
615,1624384801.334,8227
616,1624384801.336,8224
617,1624384801.338,8221
618,1624384801.34,8218
619,1624384801.342,8217
620,1624384801.344,8217
621,1624384801.346,8218
622,1624384801.348,8224
623,1624384801.35,8233
624,1624384801.352,8242
625,1624384801.354,8250
626,1624384801.356,8255
627,1624384801.358,8257
628,1624384801.36,8258
629,1624384801.362,8261
630,1624384801.364,8267
631,1624384801.366,8274
632,1624384801.368,8281
633,1624384801.37,8287
634,1624384801.372,8290
635,1624384801.374,8289
636,1624384801.376,8287
637,1624384801.378,8283
638,1624384801.38,8278
639,1624384801.382,8273
640,1624384801.384,8265
641,1624384801.386,8257
642,1624384801.388,8246
643,1624384801.39,8235
644,1624384801.392,8225
645,1624384801.394,8217
646,1624384801.396,8211
647,1624384801.398,8208
648,1624384801.4,8207
649,1624384801.402,8209
650,1624384801.404,8212
651,1624384801.406,8216
652,1624384801.408,8221
653,1624384801.41,8225
654,1624384801.412,8228
655,1624384801.414,8230
656,1624384801.416,8231
657,1624384801.418,8231
658,1624384801.42,8232
659,1624384801.422,8233
660,1624384801.424,8234
661,1624384801.426,8234
662,1624384801.428,8234
663,1624384801.43,8234
664,1624384801.432,8234
665,1624384801.434,8233
666,1624384801.436,8231
667,1624384801.438,8228
668,1624384801.44,8224
669,1624384801.442,8220
670,1624384801.444,8216
671,1624384801.446,8214
672,1624384801.448,8213
673,1624384801.45,8212
674,1624384801.452,8210
675,1624384801.454,8207
676,1624384801.456,8204
677,1624384801.458,8204
678,1624384801.46,8205
679,1624384801.462,8207
680,1624384801.464,8210
681,1624384801.466,8211
682,1624384801.468,8207
683,1624384801.47,8201
684,1624384801.472,8193
685,1624384801.474,8186
686,1624384801.476,8181
687,1624384801.478,8177
688,1624384801.48,8175
689,1624384801.482,8173
690,1624384801.484,8171
691,1624384801.486,8168
692,1624384801.488,8165
693,1624384801.49,8162
694,1624384801.492,8162
695,1624384801.494,8163
696,1624384801.496,8163
697,1624384801.498,8164
698,1624384801.5,8165
699,1624384801.502,8166
700,1624384801.504,8166
701,1624384801.506,8165
702,1624384801.508,8162
703,1624384801.51,8158
704,1624384801.512,8153
705,1624384801.514,8146
706,1624384801.516,8139
707,1624384801.518,8132
708,1624384801.52,8125
709,1624384801.522,8118
710,1624384801.524,8111
711,1624384801.526,8107
712,1624384801.528,8103
713,1624384801.53,8098
714,1624384801.532,8093
715,1624384801.534,8088
716,1624384801.536,8085
717,1624384801.538,8086
718,1624384801.54,8088
719,1624384801.542,8090
720,1624384801.544,8090
721,1624384801.546,8090
722,1624384801.548,8088
723,1624384801.55,8085
724,1624384801.552,8080
725,1624384801.554,8073
726,1624384801.556,8067
727,1624384801.558,8061
728,1624384801.56,8057
729,1624384801.562,8053
730,1624384801.564,8051
731,1624384801.566,8052
732,1624384801.568,8054
733,1624384801.57,8055
734,1624384801.572,8055
735,1624384801.574,8053
736,1624384801.576,8051
737,1624384801.578,8049
738,1624384801.58,8048
739,1624384801.582,8046
740,1624384801.584,8044
741,1624384801.586,8042
742,1624384801.588,8038
743,1624384801.59,8033
744,1624384801.592,8028
745,1624384801.594,8024
746,1624384801.596,8021
747,1624384801.598,8021
748,1624384801.6,8022
749,1624384801.602,8025
750,1624384801.604,8027
751,1624384801.606,8027
752,1624384801.608,8025
753,1624384801.61,8022
754,1624384801.612,8021
755,1624384801.614,8022
756,1624384801.616,8025
757,1624384801.618,8028
758,1624384801.62,8030
759,1624384801.622,8029
760,1624384801.624,8028
761,1624384801.626,8026
762,1624384801.628,8027
763,1624384801.63,8028
764,1624384801.632,8028
765,1624384801.634,8027
766,1624384801.636,8023
767,1624384801.638,8020
768,1624384801.64,8017
769,1624384801.642,8014
770,1624384801.644,8009
771,1624384801.646,8005
772,1624384801.648,8003
773,1624384801.65,8006
774,1624384801.652,8010
775,1624384801.654,8014
776,1624384801.656,8017
777,1624384801.658,8018
778,1624384801.66,8019
779,1624384801.662,8021
780,1624384801.664,8022
781,1624384801.666,8022
782,1624384801.668,8022
783,1624384801.67,8025
784,1624384801.672,8030
785,1624384801.674,8038
786,1624384801.676,8045
787,1624384801.678,8051
788,1624384801.68,8058
789,1624384801.682,8063
790,1624384801.684,8065
791,1624384801.686,8060
792,1624384801.688,8051
793,1624384801.69,8039
794,1624384801.692,8027
795,1624384801.694,8016
796,1624384801.696,8006
797,1624384801.698,7998
798,1624384801.7,7992
799,1624384801.702,7991
800,1624384801.704,7992
801,1624384801.706,7996
802,1624384801.708,8000
803,1624384801.71,8006
804,1624384801.712,8016
805,1624384801.714,8028
806,1624384801.716,8041
807,1624384801.718,8053
808,1624384801.72,8064
809,1624384801.722,8072
810,1624384801.724,8078
811,1624384801.726,8081
812,1624384801.728,8082
813,1624384801.73,8081
814,1624384801.732,8077
815,1624384801.734,8068
816,1624384801.736,8060
817,1624384801.738,8055
818,1624384801.74,8055
819,1624384801.742,8059
820,1624384801.744,8065
821,1624384801.746,8074
822,1624384801.748,8086
823,1624384801.75,8099
824,1624384801.752,8104
825,1624384801.754,8101
826,1624384801.756,8097
827,1624384801.758,8100
828,1624384801.76,8111
829,1624384801.762,8124
830,1624384801.764,8135
831,1624384801.766,8142
832,1624384801.768,8142
833,1624384801.77,8133
834,1624384801.772,8117
835,1624384801.774,8097
836,1624384801.776,8076
837,1624384801.778,8061
838,1624384801.78,8055
839,1624384801.782,8057
840,1624384801.784,8062
841,1624384801.786,8065
842,1624384801.788,8066
843,1624384801.79,8069
844,1624384801.792,8076
845,1624384801.794,8088
846,1624384801.796,8105
847,1624384801.798,8125
848,1624384801.8,8145
849,1624384801.802,8165
850,1624384801.804,8182
851,1624384801.806,8195
852,1624384801.808,8202
853,1624384801.81,8202
854,1624384801.812,8195
855,1624384801.814,8184
856,1624384801.816,8172
857,1624384801.818,8161
858,1624384801.82,8154
859,1624384801.822,8151
860,1624384801.824,8150
861,1624384801.826,8149
862,1624384801.828,8147
863,1624384801.83,8145
864,1624384801.832,8142
865,1624384801.834,8138
866,1624384801.836,8135
867,1624384801.838,8131
868,1624384801.84,8127
869,1624384801.842,8122
870,1624384801.844,8117
871,1624384801.846,8113
872,1624384801.848,8108
873,1624384801.85,8104
874,1624384801.852,8098
875,1624384801.854,8092
876,1624384801.856,8087
877,1624384801.858,8081
878,1624384801.86,8075
879,1624384801.862,8070
880,1624384801.864,8065
881,1624384801.866,8064
882,1624384801.868,8064
883,1624384801.87,8066
884,1624384801.872,8067
885,1624384801.874,8067
886,1624384801.876,8066
887,1624384801.878,8064
888,1624384801.88,8061
889,1624384801.882,8059
890,1624384801.884,8056
891,1624384801.886,8056
892,1624384801.888,8056
893,1624384801.89,8058
894,1624384801.892,8060
895,1624384801.894,8063
896,1624384801.896,8065
897,1624384801.898,8067
898,1624384801.9,8067
899,1624384801.902,8068
900,1624384801.904,8067
901,1624384801.906,8067
902,1624384801.908,8066
903,1624384801.91,8066
904,1624384801.912,8067
905,1624384801.914,8070
906,1624384801.916,8073
907,1624384801.918,8077
908,1624384801.92,8079
909,1624384801.922,8080
910,1624384801.924,8080
911,1624384801.926,8081
912,1624384801.928,8082
913,1624384801.93,8084
914,1624384801.932,8087
915,1624384801.934,8090
916,1624384801.936,8094
917,1624384801.938,8097
918,1624384801.94,8099
919,1624384801.942,8100
920,1624384801.944,8101
921,1624384801.946,8101
922,1624384801.948,8102
923,1624384801.95,8103
924,1624384801.952,8106
925,1624384801.954,8109
926,1624384801.956,8111
927,1624384801.958,8113
928,1624384801.96,8118
929,1624384801.962,8124
930,1624384801.964,8131
931,1624384801.966,8137
932,1624384801.968,8141
933,1624384801.97,8145
934,1624384801.972,8148
935,1624384801.974,8149
936,1624384801.976,8150
937,1624384801.978,8150
938,1624384801.98,8150
939,1624384801.982,8151
940,1624384801.984,8150
941,1624384801.986,8149
942,1624384801.988,8146
943,1624384801.99,8142
944,1624384801.992,8140
945,1624384801.994,8140
946,1624384801.996,8139
947,1624384801.998,8135
948,1624384802.0,8130
949,1624384802.002,8124
950,1624384802.004,8119
951,1624384802.006,8115
952,1624384802.008,8111
953,1624384802.01,8108
954,1624384802.012,8104
955,1624384802.014,8100
956,1624384802.016,8096
957,1624384802.018,8092
958,1624384802.02,8087
959,1624384802.022,8081
960,1624384802.024,8075
961,1624384802.026,8069
962,1624384802.028,8064
963,1624384802.03,8060
964,1624384802.032,8056
965,1624384802.034,8050
966,1624384802.036,8043
967,1624384802.038,8037
968,1624384802.04,8031
969,1624384802.042,8026
970,1624384802.044,8021
971,1624384802.046,8014
972,1624384802.048,8008
973,1624384802.05,8003
974,1624384802.052,7997
975,1624384802.054,7990
976,1624384802.056,7982
977,1624384802.058,7973
978,1624384802.06,7966
979,1624384802.062,7959
980,1624384802.064,7953
981,1624384802.066,7949
982,1624384802.068,7948
983,1624384802.07,7948
984,1624384802.072,7948
985,1624384802.074,7949
986,1624384802.076,7950
987,1624384802.078,7952
988,1624384802.08,7953
989,1624384802.082,7956
990,1624384802.084,7961
991,1624384802.086,7966
992,1624384802.088,7971
993,1624384802.09,7974
994,1624384802.092,7976
995,1624384802.094,7976
996,1624384802.096,7976
997,1624384802.098,7978
998,1624384802.1,7980
999,1624384802.102,7983
1000,1624384802.104,7986
1001,1624384802.106,7989
1002,1624384802.108,7991
1003,1624384802.11,7993
1004,1624384802.112,7994
1005,1624384802.114,7994
1006,1624384802.116,7995
1007,1624384802.118,7995
1008,1624384802.12,7994
1009,1624384802.122,7993
1010,1624384802.124,7994
1011,1624384802.126,7997
1012,1624384802.128,8001
1013,1624384802.13,8008
1014,1624384802.132,8017
1015,1624384802.134,8025
1016,1624384802.136,8032
1017,1624384802.138,8039
1018,1624384802.14,8046
1019,1624384802.142,8052
1020,1624384802.144,8058
1021,1624384802.146,8064
1022,1624384802.148,8070
1023,1624384802.15,8076
1024,1624384802.152,8081
1025,1624384802.154,8084
1026,1624384802.156,8086
1027,1624384802.158,8086
1028,1624384802.16,8085
1029,1624384802.162,8086
1030,1624384802.164,8088
1031,1624384802.166,8093
1032,1624384802.168,8098
1033,1624384802.17,8103
1034,1624384802.172,8106
1035,1624384802.174,8107
1036,1624384802.176,8108
1037,1624384802.178,8109
1038,1624384802.18,8111
1039,1624384802.182,8114
1040,1624384802.184,8116
1041,1624384802.186,8116
1042,1624384802.188,8114
1043,1624384802.19,8113
1044,1624384802.192,8112
1045,1624384802.194,8111
1046,1624384802.196,8110
1047,1624384802.198,8108
1048,1624384802.2,8104
1049,1624384802.202,8100
1050,1624384802.204,8097
1051,1624384802.206,8099
1052,1624384802.208,8106
1053,1624384802.21,8117
1054,1624384802.212,8129
1055,1624384802.214,8142
1056,1624384802.216,8155
1057,1624384802.218,8168
1058,1624384802.22,8182
1059,1624384802.222,8197
1060,1624384802.224,8213
1061,1624384802.226,8229
1062,1624384802.228,8244
1063,1624384802.23,8256
1064,1624384802.232,8266
1065,1624384802.234,8276
1066,1624384802.236,8285
1067,1624384802.238,8291
1068,1624384802.24,8293
1069,1624384802.242,8292
1070,1624384802.244,8288
1071,1624384802.246,8284
1072,1624384802.248,8282
1073,1624384802.25,8281
1074,1624384802.252,8281
1075,1624384802.254,8284
1076,1624384802.256,8291
1077,1624384802.258,8301
1078,1624384802.26,8313
1079,1624384802.262,8323
1080,1624384802.264,8331
1081,1624384802.266,8334
1082,1624384802.268,8334
1083,1624384802.27,8332
1084,1624384802.272,8331
1085,1624384802.274,8330
1086,1624384802.276,8329
1087,1624384802.278,8328
1088,1624384802.28,8325
1089,1624384802.282,8322
1090,1624384802.284,8318
1091,1624384802.286,8315
1092,1624384802.288,8311
1093,1624384802.29,8308
1094,1624384802.292,8305
1095,1624384802.294,8304
1096,1624384802.296,8303
1097,1624384802.298,8301
1098,1624384802.3,8297
1099,1624384802.302,8292
1100,1624384802.304,8286
1101,1624384802.306,8280
1102,1624384802.308,8276
1103,1624384802.31,8273
1104,1624384802.312,8271
1105,1624384802.314,8268
1106,1624384802.316,8264
1107,1624384802.318,8258
1108,1624384802.32,8252
1109,1624384802.322,8246
1110,1624384802.324,8239
1111,1624384802.326,8232
1112,1624384802.328,8226
1113,1624384802.33,8221
1114,1624384802.332,8218
1115,1624384802.334,8214
1116,1624384802.336,8209
1117,1624384802.338,8205
1118,1624384802.34,8202
1119,1624384802.342,8201
1120,1624384802.344,8201
1121,1624384802.346,8199
1122,1624384802.348,8198
1123,1624384802.35,8196
1124,1624384802.352,8196
1125,1624384802.354,8195
1126,1624384802.356,8195
1127,1624384802.358,8195
1128,1624384802.36,8197
1129,1624384802.362,8200
1130,1624384802.364,8204
1131,1624384802.366,8207
1132,1624384802.368,8210
1133,1624384802.37,8212
1134,1624384802.372,8215
1135,1624384802.374,8217
1136,1624384802.376,8218
1137,1624384802.378,8218
1138,1624384802.38,8217
1139,1624384802.382,8218
1140,1624384802.384,8220
1141,1624384802.386,8224
1142,1624384802.388,8230
1143,1624384802.39,8236
1144,1624384802.392,8242
1145,1624384802.394,8247
1146,1624384802.396,8250
1147,1624384802.398,8253
1148,1624384802.4,8256
1149,1624384802.402,8259
1150,1624384802.404,8258
1151,1624384802.406,8256
1152,1624384802.408,8253
1153,1624384802.41,8250
1154,1624384802.412,8249
1155,1624384802.414,8250
1156,1624384802.416,8252
1157,1624384802.418,8253
1158,1624384802.42,8252
1159,1624384802.422,8247
1160,1624384802.424,8240
1161,1624384802.426,8231
1162,1624384802.428,8222
1163,1624384802.43,8215
1164,1624384802.432,8208
1165,1624384802.434,8204
1166,1624384802.436,8200
1167,1624384802.438,8197
1168,1624384802.44,8194
1169,1624384802.442,8191
1170,1624384802.444,8185
1171,1624384802.446,8175
1172,1624384802.448,8163
1173,1624384802.45,8151
1174,1624384802.452,8145
1175,1624384802.454,8142
1176,1624384802.456,8143
1177,1624384802.458,8146
1178,1624384802.46,8149
1179,1624384802.462,8153
1180,1624384802.464,8154
1181,1624384802.466,8154
1182,1624384802.468,8150
1183,1624384802.47,8145
1184,1624384802.472,8138
1185,1624384802.474,8132
1186,1624384802.476,8125
1187,1624384802.478,8117
1188,1624384802.48,8109
1189,1624384802.482,8101
1190,1624384802.484,8093
1191,1624384802.486,8087
1192,1624384802.488,8082
1193,1624384802.49,8078
1194,1624384802.492,8074
1195,1624384802.494,8072
1196,1624384802.496,8071
1197,1624384802.498,8066
1198,1624384802.5,8055
1199,1624384802.502,8044
1200,1624384802.504,8039
1201,1624384802.506,8039
1202,1624384802.508,8039
1203,1624384802.51,8036
1204,1624384802.512,8032
1205,1624384802.514,8029
1206,1624384802.516,8026
1207,1624384802.518,8023
1208,1624384802.52,8018
1209,1624384802.522,8012
1210,1624384802.524,8007
1211,1624384802.526,8002
1212,1624384802.528,7999
1213,1624384802.53,7998
1214,1624384802.532,7998
1215,1624384802.534,7999
1216,1624384802.536,7998
1217,1624384802.538,7996
1218,1624384802.54,7991
1219,1624384802.542,7985
1220,1624384802.544,7978
1221,1624384802.546,7972
1222,1624384802.548,7968
1223,1624384802.55,7966
1224,1624384802.552,7966
1225,1624384802.554,7966
1226,1624384802.556,7966
1227,1624384802.558,7965
1228,1624384802.56,7962
1229,1624384802.562,7958
1230,1624384802.564,7955
1231,1624384802.566,7954
1232,1624384802.568,7956
1233,1624384802.57,7960
1234,1624384802.572,7965
1235,1624384802.574,7973
1236,1624384802.576,7984
1237,1624384802.578,7997
1238,1624384802.58,8014
1239,1624384802.582,8034
1240,1624384802.584,8054
1241,1624384802.586,8071
1242,1624384802.588,8085
1243,1624384802.59,8095
1244,1624384802.592,8101
1245,1624384802.594,8105
1246,1624384802.596,8109
1247,1624384802.598,8113
1248,1624384802.6,8117
1249,1624384802.602,8122
1250,1624384802.604,8129
1251,1624384802.606,8135
1252,1624384802.608,8140
1253,1624384802.61,8145
1254,1624384802.612,8150
1255,1624384802.614,8158
1256,1624384802.616,8167
1257,1624384802.618,8176
1258,1624384802.62,8182
1259,1624384802.622,8183
1260,1624384802.624,8181
1261,1624384802.626,8177
1262,1624384802.628,8172
1263,1624384802.63,8166
1264,1624384802.632,8161
1265,1624384802.634,8157
1266,1624384802.636,8154
1267,1624384802.638,8152
1268,1624384802.64,8152
1269,1624384802.642,8153
1270,1624384802.644,8155
1271,1624384802.646,8157
1272,1624384802.648,8160
1273,1624384802.65,8163
1274,1624384802.652,8166
1275,1624384802.654,8168
1276,1624384802.656,8171
1277,1624384802.658,8174
1278,1624384802.66,8176
1279,1624384802.662,8178
1280,1624384802.664,8181
1281,1624384802.666,8185
1282,1624384802.668,8189
1283,1624384802.67,8191
1284,1624384802.672,8193
1285,1624384802.674,8194
1286,1624384802.676,8198
1287,1624384802.678,8202
1288,1624384802.68,8208
1289,1624384802.682,8215
1290,1624384802.684,8222
1291,1624384802.686,8228
1292,1624384802.688,8232
1293,1624384802.69,8234
1294,1624384802.692,8236
1295,1624384802.694,8237
1296,1624384802.696,8240
1297,1624384802.698,8244
1298,1624384802.7,8248
1299,1624384802.702,8251
1300,1624384802.704,8252
1301,1624384802.706,8251
1302,1624384802.708,8248
1303,1624384802.71,8244
1304,1624384802.712,8241
1305,1624384802.714,8238
1306,1624384802.716,8235
1307,1624384802.718,8233
1308,1624384802.72,8230
1309,1624384802.722,8226
1310,1624384802.724,8220
1311,1624384802.726,8214
1312,1624384802.728,8208
1313,1624384802.73,8201
1314,1624384802.732,8194
1315,1624384802.734,8186
1316,1624384802.736,8178
1317,1624384802.738,8169
1318,1624384802.74,8160
1319,1624384802.742,8150
1320,1624384802.744,8142
1321,1624384802.746,8134
1322,1624384802.748,8128
1323,1624384802.75,8122
1324,1624384802.752,8117
1325,1624384802.754,8112
1326,1624384802.756,8107
1327,1624384802.758,8103
1328,1624384802.76,8100
1329,1624384802.762,8098
1330,1624384802.764,8097
1331,1624384802.766,8097
1332,1624384802.768,8099
1333,1624384802.77,8102
1334,1624384802.772,8104
1335,1624384802.774,8108
1336,1624384802.776,8112
1337,1624384802.778,8116
1338,1624384802.78,8120
1339,1624384802.782,8126
1340,1624384802.784,8132
1341,1624384802.786,8140
1342,1624384802.788,8149
1343,1624384802.79,8160
1344,1624384802.792,8171
1345,1624384802.794,8179
1346,1624384802.796,8184
1347,1624384802.798,8188
1348,1624384802.8,8192
1349,1624384802.802,8196
1350,1624384802.804,8199
1351,1624384802.806,8202
1352,1624384802.808,8205
1353,1624384802.81,8208
1354,1624384802.812,8209
1355,1624384802.814,8208
1356,1624384802.816,8206
1357,1624384802.818,8205
1358,1624384802.82,8205
1359,1624384802.822,8206
1360,1624384802.824,8206
1361,1624384802.826,8206
1362,1624384802.828,8205
1363,1624384802.83,8205
1364,1624384802.832,8204
1365,1624384802.834,8204
1366,1624384802.836,8202
1367,1624384802.838,8200
1368,1624384802.84,8198
1369,1624384802.842,8195
1370,1624384802.844,8192
1371,1624384802.846,8191
1372,1624384802.848,8191
1373,1624384802.85,8192
1374,1624384802.852,8193
1375,1624384802.854,8194
1376,1624384802.856,8198
1377,1624384802.858,8202
1378,1624384802.86,8207
1379,1624384802.862,8212
1380,1624384802.864,8216
1381,1624384802.866,8219
1382,1624384802.868,8222
1383,1624384802.87,8223
1384,1624384802.872,8223
1385,1624384802.874,8221
1386,1624384802.876,8219
1387,1624384802.878,8216
1388,1624384802.88,8215
1389,1624384802.882,8215
1390,1624384802.884,8216
1391,1624384802.886,8216
1392,1624384802.888,8216
1393,1624384802.89,8214
1394,1624384802.892,8213
1395,1624384802.894,8211
1396,1624384802.896,8209
1397,1624384802.898,8207
1398,1624384802.9,8203
1399,1624384802.902,8197
1400,1624384802.904,8190
1401,1624384802.906,8183
1402,1624384802.908,8175
1403,1624384802.91,8166
1404,1624384802.912,8158
1405,1624384802.914,8150
1406,1624384802.916,8144
1407,1624384802.918,8140
1408,1624384802.92,8136
1409,1624384802.922,8132
1410,1624384802.924,8128
1411,1624384802.926,8126
1412,1624384802.928,8124
1413,1624384802.93,8121
1414,1624384802.932,8117
1415,1624384802.934,8112
1416,1624384802.936,8107
1417,1624384802.938,8101
1418,1624384802.94,8095
1419,1624384802.942,8088
1420,1624384802.944,8081
1421,1624384802.946,8074
1422,1624384802.948,8069
1423,1624384802.95,8067
1424,1624384802.952,8065
1425,1624384802.954,8063
1426,1624384802.956,8058
1427,1624384802.958,8053
1428,1624384802.96,8048
1429,1624384802.962,8042
1430,1624384802.964,8035
1431,1624384802.966,8028
1432,1624384802.968,8020
1433,1624384802.97,8012
1434,1624384802.972,8003
1435,1624384802.974,7995
1436,1624384802.976,7987
1437,1624384802.978,7980
1438,1624384802.98,7972
1439,1624384802.982,7967
1440,1624384802.984,7965
1441,1624384802.986,7966
1442,1624384802.988,7969
1443,1624384802.99,7973
1444,1624384802.992,7977
1445,1624384802.994,7980
1446,1624384802.996,7980
1447,1624384802.998,7976
1448,1624384803.0,7970
1449,1624384803.002,7964
1450,1624384803.004,7959
1451,1624384803.006,7956
1452,1624384803.008,7954
1453,1624384803.01,7952
1454,1624384803.012,7951
1455,1624384803.014,7953
1456,1624384803.016,7956
1457,1624384803.018,7960
1458,1624384803.02,7962
1459,1624384803.022,7963
1460,1624384803.024,7964
1461,1624384803.026,7966
1462,1624384803.028,7969
1463,1624384803.03,7972
1464,1624384803.032,7975
1465,1624384803.034,7977
1466,1624384803.036,7980
1467,1624384803.038,7985
1468,1624384803.04,7993
1469,1624384803.042,8003
1470,1624384803.044,8012
1471,1624384803.046,8018
1472,1624384803.048,8022
1473,1624384803.05,8026
1474,1624384803.052,8030
1475,1624384803.054,8035
1476,1624384803.056,8041
1477,1624384803.058,8046
1478,1624384803.06,8050
1479,1624384803.062,8054
1480,1624384803.064,8058
1481,1624384803.066,8063
1482,1624384803.068,8069
1483,1624384803.07,8076
1484,1624384803.072,8085
1485,1624384803.074,8095
1486,1624384803.076,8106
1487,1624384803.078,8115
1488,1624384803.08,8121
1489,1624384803.082,8126
1490,1624384803.084,8131
1491,1624384803.086,8136
1492,1624384803.088,8144
1493,1624384803.09,8150
1494,1624384803.092,8152
1495,1624384803.094,8150
1496,1624384803.096,8146
1497,1624384803.098,8144
1498,1624384803.1,8145
1499,1624384803.102,8149
1500,1624384803.104,8155
1501,1624384803.106,8162
1502,1624384803.108,8171
1503,1624384803.11,8183
1504,1624384803.112,8195
1505,1624384803.114,8206
1506,1624384803.116,8213
1507,1624384803.118,8219
1508,1624384803.12,8222
1509,1624384803.122,8227
1510,1624384803.124,8232
1511,1624384803.126,8238
1512,1624384803.128,8245
1513,1624384803.13,8250
1514,1624384803.132,8255
1515,1624384803.134,8259
1516,1624384803.136,8263
1517,1624384803.138,8269
1518,1624384803.14,8275
1519,1624384803.142,8280
1520,1624384803.144,8285
1521,1624384803.146,8290
1522,1624384803.148,8294
1523,1624384803.15,8298
1524,1624384803.152,8301
1525,1624384803.154,8303
1526,1624384803.156,8304
1527,1624384803.158,8304
1528,1624384803.16,8303
1529,1624384803.162,8303
1530,1624384803.164,8304
1531,1624384803.166,8304
1532,1624384803.168,8304
1533,1624384803.17,8303
1534,1624384803.172,8304
1535,1624384803.174,8305
1536,1624384803.176,8305
1537,1624384803.178,8304
1538,1624384803.18,8299
1539,1624384803.182,8292
1540,1624384803.184,8286
1541,1624384803.186,8279
1542,1624384803.188,8273
1543,1624384803.19,8270
1544,1624384803.192,8267
1545,1624384803.194,8264
1546,1624384803.196,8259
1547,1624384803.198,8253
1548,1624384803.2,8247
1549,1624384803.202,8239
1550,1624384803.204,8230
1551,1624384803.206,8221
1552,1624384803.208,8214
1553,1624384803.21,8208
1554,1624384803.212,8203
1555,1624384803.214,8198
1556,1624384803.216,8193
1557,1624384803.218,8185
1558,1624384803.22,8175
1559,1624384803.222,8163
1560,1624384803.224,8152
1561,1624384803.226,8145
1562,1624384803.228,8142
1563,1624384803.23,8144
1564,1624384803.232,8148
1565,1624384803.234,8153
1566,1624384803.236,8157
1567,1624384803.238,8161
1568,1624384803.24,8166
1569,1624384803.242,8171
1570,1624384803.244,8175
1571,1624384803.246,8178
1572,1624384803.248,8180
1573,1624384803.25,8180
1574,1624384803.252,8178
1575,1624384803.254,8173
1576,1624384803.256,8168
1577,1624384803.258,8165
1578,1624384803.26,8166
1579,1624384803.262,8169
1580,1624384803.264,8174
1581,1624384803.266,8179
1582,1624384803.268,8184
1583,1624384803.27,8186
1584,1624384803.272,8188
1585,1624384803.274,8189
1586,1624384803.276,8189
1587,1624384803.278,8184
1588,1624384803.28,8172
1589,1624384803.282,8158
1590,1624384803.284,8152
1591,1624384803.286,8158
1592,1624384803.288,8171
1593,1624384803.29,8185
1594,1624384803.292,8199
1595,1624384803.294,8211
1596,1624384803.296,8222
1597,1624384803.298,8227
1598,1624384803.3,8226
1599,1624384803.302,8222
1600,1624384803.304,8219
1601,1624384803.306,8220
1602,1624384803.308,8223
1603,1624384803.31,8227
1604,1624384803.312,8231
1605,1624384803.314,8233
1606,1624384803.316,8234
1607,1624384803.318,8233
1608,1624384803.32,8232
1609,1624384803.322,8229
1610,1624384803.324,8225
1611,1624384803.326,8219
1612,1624384803.328,8210
1613,1624384803.33,8201
1614,1624384803.332,8193
1615,1624384803.334,8187
1616,1624384803.336,8181
1617,1624384803.338,8175
1618,1624384803.34,8170
1619,1624384803.342,8164
1620,1624384803.344,8159
1621,1624384803.346,8154
1622,1624384803.348,8147
1623,1624384803.35,8140
1624,1624384803.352,8132
1625,1624384803.354,8125
1626,1624384803.356,8117
1627,1624384803.358,8108
1628,1624384803.36,8099
1629,1624384803.362,8091
1630,1624384803.364,8084
1631,1624384803.366,8078
1632,1624384803.368,8072
1633,1624384803.37,8067
1634,1624384803.372,8063
1635,1624384803.374,8060
1636,1624384803.376,8058
1637,1624384803.378,8056
1638,1624384803.38,8054
1639,1624384803.382,8053
1640,1624384803.384,8052
1641,1624384803.386,8053
1642,1624384803.388,8053
1643,1624384803.39,8052
1644,1624384803.392,8050
1645,1624384803.394,8048
1646,1624384803.396,8045
1647,1624384803.398,8040
1648,1624384803.4,8034
1649,1624384803.402,8028
1650,1624384803.404,8022
1651,1624384803.406,8018
1652,1624384803.408,8015
1653,1624384803.41,8014
1654,1624384803.412,8012
1655,1624384803.414,8008
1656,1624384803.416,8004
1657,1624384803.418,8000
1658,1624384803.42,7998
1659,1624384803.422,7998
1660,1624384803.424,7998
1661,1624384803.426,7999
1662,1624384803.428,8000
1663,1624384803.43,7998
1664,1624384803.432,7993
1665,1624384803.434,7986
1666,1624384803.436,7980
1667,1624384803.438,7976
1668,1624384803.44,7975
1669,1624384803.442,7978
1670,1624384803.444,7986
1671,1624384803.446,7995
1672,1624384803.448,8005
1673,1624384803.45,8014
1674,1624384803.452,8020
1675,1624384803.454,8024
1676,1624384803.456,8027
1677,1624384803.458,8031
1678,1624384803.46,8034
1679,1624384803.462,8039
1680,1624384803.464,8045
1681,1624384803.466,8055
1682,1624384803.468,8067
1683,1624384803.47,8080
1684,1624384803.472,8091
1685,1624384803.474,8100
1686,1624384803.476,8108
1687,1624384803.478,8114
1688,1624384803.48,8120
1689,1624384803.482,8126
1690,1624384803.484,8130
1691,1624384803.486,8133
1692,1624384803.488,8137
1693,1624384803.49,8142
1694,1624384803.492,8147
1695,1624384803.494,8152
1696,1624384803.496,8155
1697,1624384803.498,8158
1698,1624384803.5,8161
1699,1624384803.502,8164
1700,1624384803.504,8165
1701,1624384803.506,8165
1702,1624384803.508,8163
1703,1624384803.51,8160
1704,1624384803.512,8158
1705,1624384803.514,8156
1706,1624384803.516,8155
1707,1624384803.518,8155
1708,1624384803.52,8156
1709,1624384803.522,8156
1710,1624384803.524,8157
1711,1624384803.526,8157
1712,1624384803.528,8159
1713,1624384803.53,8163
1714,1624384803.532,8168
1715,1624384803.534,8171
1716,1624384803.536,8172
1717,1624384803.538,8171
1718,1624384803.54,8170
1719,1624384803.542,8168
1720,1624384803.544,8167
1721,1624384803.546,8167
1722,1624384803.548,8169
1723,1624384803.55,8171
1724,1624384803.552,8174
1725,1624384803.554,8176
1726,1624384803.556,8179
1727,1624384803.558,8181
1728,1624384803.56,8183
1729,1624384803.562,8185
1730,1624384803.564,8187
1731,1624384803.566,8189
1732,1624384803.568,8192
1733,1624384803.57,8194
1734,1624384803.572,8196
1735,1624384803.574,8198
1736,1624384803.576,8201
1737,1624384803.578,8204
1738,1624384803.58,8207
1739,1624384803.582,8211
1740,1624384803.584,8219
1741,1624384803.586,8228
1742,1624384803.588,8235
1743,1624384803.59,8239
1744,1624384803.592,8238
1745,1624384803.594,8238
1746,1624384803.596,8242
1747,1624384803.598,8249
1748,1624384803.6,8254
1749,1624384803.602,8253
1750,1624384803.604,8246
1751,1624384803.606,8240
1752,1624384803.608,8241
1753,1624384803.61,8248
1754,1624384803.612,8256
1755,1624384803.614,8265
1756,1624384803.616,8275
1757,1624384803.618,8286
1758,1624384803.62,8298
1759,1624384803.622,8310
1760,1624384803.624,8319
1761,1624384803.626,8323
1762,1624384803.628,8316
1763,1624384803.63,8298
1764,1624384803.632,8273
1765,1624384803.634,8249
1766,1624384803.636,8228
1767,1624384803.638,8212
1768,1624384803.64,8203
1769,1624384803.642,8197
1770,1624384803.644,8195
1771,1624384803.646,8194
1772,1624384803.648,8192
1773,1624384803.65,8188
1774,1624384803.652,8183
1775,1624384803.654,8180
1776,1624384803.656,8178
1777,1624384803.658,8177
1778,1624384803.66,8177
1779,1624384803.662,8179
1780,1624384803.664,8183
1781,1624384803.666,8189
1782,1624384803.668,8194
1783,1624384803.67,8198
1784,1624384803.672,8201
1785,1624384803.674,8204
1786,1624384803.676,8209
1787,1624384803.678,8214
1788,1624384803.68,8218
1789,1624384803.682,8220
1790,1624384803.684,8218
1791,1624384803.686,8215
1792,1624384803.688,8212
1793,1624384803.69,8210
1794,1624384803.692,8209
1795,1624384803.694,8208
1796,1624384803.696,8206
1797,1624384803.698,8200
1798,1624384803.7,8190
1799,1624384803.702,8181
1800,1624384803.704,8177
1801,1624384803.706,8179
1802,1624384803.708,8187
1803,1624384803.71,8195
1804,1624384803.712,8198
1805,1624384803.714,8192
1806,1624384803.716,8181
1807,1624384803.718,8169
1808,1624384803.72,8159
1809,1624384803.722,8154
1810,1624384803.724,8155
1811,1624384803.726,8163
1812,1624384803.728,8173
1813,1624384803.73,8185
1814,1624384803.732,8193
1815,1624384803.734,8197
1816,1624384803.736,8196
1817,1624384803.738,8194
1818,1624384803.74,8191
1819,1624384803.742,8190
1820,1624384803.744,8189
1821,1624384803.746,8187
1822,1624384803.748,8181
1823,1624384803.75,8174
1824,1624384803.752,8167
1825,1624384803.754,8166
1826,1624384803.756,8170
1827,1624384803.758,8176
1828,1624384803.76,8180
1829,1624384803.762,8184
1830,1624384803.764,8187
1831,1624384803.766,8190
1832,1624384803.768,8193
1833,1624384803.77,8195
1834,1624384803.772,8195
1835,1624384803.774,8193
1836,1624384803.776,8191
1837,1624384803.778,8191
1838,1624384803.78,8193
1839,1624384803.782,8199
1840,1624384803.784,8208
1841,1624384803.786,8216
1842,1624384803.788,8221
1843,1624384803.79,8224
1844,1624384803.792,8225
1845,1624384803.794,8226
1846,1624384803.796,8228
1847,1624384803.798,8230
1848,1624384803.8,8233
1849,1624384803.802,8240
1850,1624384803.804,8254
1851,1624384803.806,8271
1852,1624384803.808,8281
1853,1624384803.81,8281
1854,1624384803.812,8269
1855,1624384803.814,8249
1856,1624384803.816,8227
1857,1624384803.818,8208
1858,1624384803.82,8197
1859,1624384803.822,8192
1860,1624384803.824,8192
1861,1624384803.826,8191
1862,1624384803.828,8185
1863,1624384803.83,8177
1864,1624384803.832,8168
1865,1624384803.834,8160
1866,1624384803.836,8153
1867,1624384803.838,8145
1868,1624384803.84,8137
1869,1624384803.842,8131
1870,1624384803.844,8126
1871,1624384803.846,8122
1872,1624384803.848,8118
1873,1624384803.85,8113
1874,1624384803.852,8107
1875,1624384803.854,8102
1876,1624384803.856,8098
1877,1624384803.858,8091
1878,1624384803.86,8082
1879,1624384803.862,8074
1880,1624384803.864,8067
1881,1624384803.866,8063
1882,1624384803.868,8060
1883,1624384803.87,8058
1884,1624384803.872,8055
1885,1624384803.874,8049
1886,1624384803.876,8038
1887,1624384803.878,8026
1888,1624384803.88,8016
1889,1624384803.882,8011
1890,1624384803.884,8007
1891,1624384803.886,8003
1892,1624384803.888,7997
1893,1624384803.89,7995
1894,1624384803.892,7996
1895,1624384803.894,7999
1896,1624384803.896,8002
1897,1624384803.898,8005
1898,1624384803.9,8007
1899,1624384803.902,8007
1900,1624384803.904,8007
1901,1624384803.906,8011
1902,1624384803.908,8022
1903,1624384803.91,8036
1904,1624384803.912,8047
1905,1624384803.914,8055
1906,1624384803.916,8059
1907,1624384803.918,8061
1908,1624384803.92,8061
1909,1624384803.922,8061
1910,1624384803.924,8059
1911,1624384803.926,8058
1912,1624384803.928,8059
1913,1624384803.93,8065
1914,1624384803.932,8073
1915,1624384803.934,8080
1916,1624384803.936,8087
1917,1624384803.938,8094
1918,1624384803.94,8103
1919,1624384803.942,8114
1920,1624384803.944,8125
1921,1624384803.946,8132
1922,1624384803.948,8134
1923,1624384803.95,8134
1924,1624384803.952,8135
1925,1624384803.954,8136
1926,1624384803.956,8138
1927,1624384803.958,8139
1928,1624384803.96,8136
1929,1624384803.962,8130
1930,1624384803.964,8125
1931,1624384803.966,8121
1932,1624384803.968,8121
1933,1624384803.97,8124
1934,1624384803.972,8130
1935,1624384803.974,8136
1936,1624384803.976,8138
1937,1624384803.978,8133
1938,1624384803.98,8125
1939,1624384803.982,8118
1940,1624384803.984,8116
1941,1624384803.986,8118
1942,1624384803.988,8122
1943,1624384803.99,8128
1944,1624384803.992,8133
1945,1624384803.994,8138
1946,1624384803.996,8139
1947,1624384803.998,8137
1948,1624384804.0,8133
1949,1624384804.002,8129
1950,1624384804.004,8126
1951,1624384804.006,8128
1952,1624384804.008,8132
1953,1624384804.01,8137
1954,1624384804.012,8139
1955,1624384804.014,8140
1956,1624384804.016,8141
1957,1624384804.018,8143
1958,1624384804.02,8146
1959,1624384804.022,8150
1960,1624384804.024,8157
1961,1624384804.026,8163
1962,1624384804.028,8169
1963,1624384804.03,8175
1964,1624384804.032,8181
1965,1624384804.034,8186
1966,1624384804.036,8192
1967,1624384804.038,8199
1968,1624384804.04,8208
1969,1624384804.042,8219
1970,1624384804.044,8230
1971,1624384804.046,8240
1972,1624384804.048,8250
1973,1624384804.05,8258
1974,1624384804.052,8264
1975,1624384804.054,8266
1976,1624384804.056,8267
1977,1624384804.058,8268
1978,1624384804.06,8270
1979,1624384804.062,8271
1980,1624384804.064,8272
1981,1624384804.066,8273
1982,1624384804.068,8277
1983,1624384804.07,8284
1984,1624384804.072,8293
1985,1624384804.074,8301
1986,1624384804.076,8304
1987,1624384804.078,8302
1988,1624384804.08,8296
1989,1624384804.082,8291
1990,1624384804.084,8290
1991,1624384804.086,8292
1992,1624384804.088,8296
1993,1624384804.09,8300
1994,1624384804.092,8303
1995,1624384804.094,8305
1996,1624384804.096,8307
1997,1624384804.098,8310
1998,1624384804.1,8311
1999,1624384804.102,8314
2000,1624384804.104,8318
2001,1624384804.106,8324
2002,1624384804.108,8331
2003,1624384804.11,8337
2004,1624384804.112,8341
2005,1624384804.114,8341
2006,1624384804.116,8339
2007,1624384804.118,8336
2008,1624384804.12,8332
2009,1624384804.122,8327
2010,1624384804.124,8322
2011,1624384804.126,8320
2012,1624384804.128,8321
2013,1624384804.13,8325
2014,1624384804.132,8332
2015,1624384804.134,8340
2016,1624384804.136,8349
2017,1624384804.138,8356
2018,1624384804.14,8361
2019,1624384804.142,8366
2020,1624384804.144,8370
2021,1624384804.146,8374
2022,1624384804.148,8378
2023,1624384804.15,8382
2024,1624384804.152,8388
2025,1624384804.154,8394
2026,1624384804.156,8399
2027,1624384804.158,8402
2028,1624384804.16,8403
2029,1624384804.162,8405
2030,1624384804.164,8409
2031,1624384804.166,8414
2032,1624384804.168,8420
2033,1624384804.17,8425
2034,1624384804.172,8428
2035,1624384804.174,8429
2036,1624384804.176,8430
2037,1624384804.178,8430
2038,1624384804.18,8432
2039,1624384804.182,8435
2040,1624384804.184,8439
2041,1624384804.186,8446
2042,1624384804.188,8454
2043,1624384804.19,8460
2044,1624384804.192,8462
2045,1624384804.194,8460
2046,1624384804.196,8456
2047,1624384804.198,8453
2048,1624384804.2,8450
2049,1624384804.202,8446
2050,1624384804.204,8442
2051,1624384804.206,8436
2052,1624384804.208,8429
2053,1624384804.21,8422
2054,1624384804.212,8417
2055,1624384804.214,8412
2056,1624384804.216,8409
2057,1624384804.218,8406
2058,1624384804.22,8404
2059,1624384804.222,8400
2060,1624384804.224,8396
2061,1624384804.226,8391
2062,1624384804.228,8385
2063,1624384804.23,8379
2064,1624384804.232,8372
2065,1624384804.234,8366
2066,1624384804.236,8361
2067,1624384804.238,8353
2068,1624384804.24,8344
2069,1624384804.242,8335
2070,1624384804.244,8327
2071,1624384804.246,8320
2072,1624384804.248,8311
2073,1624384804.25,8301
2074,1624384804.252,8292
2075,1624384804.254,8283
2076,1624384804.256,8275
2077,1624384804.258,8266
2078,1624384804.26,8256
2079,1624384804.262,8247
2080,1624384804.264,8239
2081,1624384804.266,8233
2082,1624384804.268,8228
2083,1624384804.27,8224
2084,1624384804.272,8218
2085,1624384804.274,8210
2086,1624384804.276,8201
2087,1624384804.278,8192
2088,1624384804.28,8186
2089,1624384804.282,8183
2090,1624384804.284,8184
2091,1624384804.286,8186
2092,1624384804.288,8189
2093,1624384804.29,8195
2094,1624384804.292,8199
2095,1624384804.294,8201
2096,1624384804.296,8201
2097,1624384804.298,8202
2098,1624384804.3,8204
2099,1624384804.302,8206
2100,1624384804.304,8207
2101,1624384804.306,8206
2102,1624384804.308,8207
2103,1624384804.31,8209
2104,1624384804.312,8213
2105,1624384804.314,8217
2106,1624384804.316,8218
2107,1624384804.318,8218
2108,1624384804.32,8217
2109,1624384804.322,8214
2110,1624384804.324,8210
2111,1624384804.326,8208
2112,1624384804.328,8209
2113,1624384804.33,8214
2114,1624384804.332,8222
2115,1624384804.334,8230
2116,1624384804.336,8237
2117,1624384804.338,8242
2118,1624384804.34,8244
2119,1624384804.342,8244
2120,1624384804.344,8239
2121,1624384804.346,8231
2122,1624384804.348,8222
2123,1624384804.35,8212
2124,1624384804.352,8203
2125,1624384804.354,8195
2126,1624384804.356,8190
2127,1624384804.358,8188
2128,1624384804.36,8189
2129,1624384804.362,8189
2130,1624384804.364,8188
2131,1624384804.366,8185
2132,1624384804.368,8183
2133,1624384804.37,8180
2134,1624384804.372,8176
2135,1624384804.374,8171
2136,1624384804.376,8167
2137,1624384804.378,8164
2138,1624384804.38,8162
2139,1624384804.382,8161
2140,1624384804.384,8160
2141,1624384804.386,8159
2142,1624384804.388,8156
2143,1624384804.39,8152
2144,1624384804.392,8148
2145,1624384804.394,8145
2146,1624384804.396,8141
2147,1624384804.398,8135
2148,1624384804.4,8128
2149,1624384804.402,8122
2150,1624384804.404,8119
2151,1624384804.406,8117
2152,1624384804.408,8116
2153,1624384804.41,8115
2154,1624384804.412,8116
2155,1624384804.414,8117
2156,1624384804.416,8119
2157,1624384804.418,8118
2158,1624384804.42,8116
2159,1624384804.422,8116
2160,1624384804.424,8115
2161,1624384804.426,8113
2162,1624384804.428,8109
2163,1624384804.43,8105
2164,1624384804.432,8102
2165,1624384804.434,8101
2166,1624384804.436,8103
2167,1624384804.438,8105
2168,1624384804.44,8105
2169,1624384804.442,8103
2170,1624384804.444,8100
2171,1624384804.446,8097
2172,1624384804.448,8095
2173,1624384804.45,8094
2174,1624384804.452,8093
2175,1624384804.454,8090
2176,1624384804.456,8085
2177,1624384804.458,8081
2178,1624384804.46,8080
2179,1624384804.462,8080
2180,1624384804.464,8080
2181,1624384804.466,8076
2182,1624384804.468,8070
2183,1624384804.47,8066
2184,1624384804.472,8062
2185,1624384804.474,8060
2186,1624384804.476,8058
2187,1624384804.478,8055
2188,1624384804.48,8050
2189,1624384804.482,8046
2190,1624384804.484,8044
2191,1624384804.486,8044
2192,1624384804.488,8046
2193,1624384804.49,8048
2194,1624384804.492,8049
2195,1624384804.494,8051
2196,1624384804.496,8054
2197,1624384804.498,8056
2198,1624384804.5,8058
2199,1624384804.502,8058
2200,1624384804.504,8058
2201,1624384804.506,8059
2202,1624384804.508,8061
2203,1624384804.51,8064
2204,1624384804.512,8068
2205,1624384804.514,8072
2206,1624384804.516,8074
2207,1624384804.518,8074
2208,1624384804.52,8075
2209,1624384804.522,8079
2210,1624384804.524,8085
2211,1624384804.526,8091
2212,1624384804.528,8094
2213,1624384804.53,8092
2214,1624384804.532,8087
2215,1624384804.534,8082
2216,1624384804.536,8078
2217,1624384804.538,8075
2218,1624384804.54,8074
2219,1624384804.542,8075
2220,1624384804.544,8079
2221,1624384804.546,8081
2222,1624384804.548,8083
2223,1624384804.55,8084
2224,1624384804.552,8086
2225,1624384804.554,8089
2226,1624384804.556,8094
2227,1624384804.558,8099
2228,1624384804.56,8101
2229,1624384804.562,8102
2230,1624384804.564,8102
2231,1624384804.566,8102
2232,1624384804.568,8103
2233,1624384804.57,8105
2234,1624384804.572,8108
2235,1624384804.574,8110
2236,1624384804.576,8111
2237,1624384804.578,8113
2238,1624384804.58,8119
2239,1624384804.582,8127
2240,1624384804.584,8135
2241,1624384804.586,8142
2242,1624384804.588,8145
2243,1624384804.59,8145
2244,1624384804.592,8144
2245,1624384804.594,8143
2246,1624384804.596,8143
2247,1624384804.598,8142
2248,1624384804.6,8138
2249,1624384804.602,8132
2250,1624384804.604,8124
2251,1624384804.606,8115
2252,1624384804.608,8106
2253,1624384804.61,8096
2254,1624384804.612,8085
2255,1624384804.614,8076
2256,1624384804.616,8069
2257,1624384804.618,8065
2258,1624384804.62,8061
2259,1624384804.622,8056
2260,1624384804.624,8048
2261,1624384804.626,8037
2262,1624384804.628,8025
2263,1624384804.63,8012
2264,1624384804.632,8000
2265,1624384804.634,7992
2266,1624384804.636,7987
2267,1624384804.638,7983
2268,1624384804.64,7978
2269,1624384804.642,7974
2270,1624384804.644,7971
2271,1624384804.646,7970
2272,1624384804.648,7973
2273,1624384804.65,7980
2274,1624384804.652,7984
2275,1624384804.654,7983
2276,1624384804.656,7976
2277,1624384804.658,7965
2278,1624384804.66,7955
2279,1624384804.662,7951
2280,1624384804.664,7954
2281,1624384804.666,7961
2282,1624384804.668,7971
2283,1624384804.67,7984
2284,1624384804.672,7999
2285,1624384804.674,8010
2286,1624384804.676,8014
2287,1624384804.678,8010
2288,1624384804.68,8003
2289,1624384804.682,7997
2290,1624384804.684,7995
2291,1624384804.686,7999
2292,1624384804.688,8006
2293,1624384804.69,8012
2294,1624384804.692,8013
2295,1624384804.694,8011
2296,1624384804.696,8010
2297,1624384804.698,8010
2298,1624384804.7,8009
2299,1624384804.702,8009
2300,1624384804.704,8011
2301,1624384804.706,8018
2302,1624384804.708,8029
2303,1624384804.71,8046
2304,1624384804.712,8064
2305,1624384804.714,8081
2306,1624384804.716,8094
2307,1624384804.718,8106
2308,1624384804.72,8115
2309,1624384804.722,8122
2310,1624384804.724,8126
2311,1624384804.726,8127
2312,1624384804.728,8125
2313,1624384804.73,8121
2314,1624384804.732,8118
2315,1624384804.734,8116
2316,1624384804.736,8121
2317,1624384804.738,8135
2318,1624384804.74,8157
2319,1624384804.742,8179
2320,1624384804.744,8192
2321,1624384804.746,8194
2322,1624384804.748,8186
2323,1624384804.75,8172
2324,1624384804.752,8158
2325,1624384804.754,8152
2326,1624384804.756,8156
2327,1624384804.758,8169
2328,1624384804.76,8185
2329,1624384804.762,8199
2330,1624384804.764,8209
2331,1624384804.766,8212
2332,1624384804.768,8211
2333,1624384804.77,8213
2334,1624384804.772,8217
2335,1624384804.774,8219
2336,1624384804.776,8218
2337,1624384804.778,8213
2338,1624384804.78,8207
2339,1624384804.782,8202
2340,1624384804.784,8199
2341,1624384804.786,8198
2342,1624384804.788,8200
2343,1624384804.79,8207
2344,1624384804.792,8217
2345,1624384804.794,8223
2346,1624384804.796,8220
2347,1624384804.798,8210
2348,1624384804.8,8196
2349,1624384804.802,8182
2350,1624384804.804,8168
2351,1624384804.806,8157
2352,1624384804.808,8149
2353,1624384804.81,8145
2354,1624384804.812,8144
2355,1624384804.814,8144
2356,1624384804.816,8143
2357,1624384804.818,8141
2358,1624384804.82,8137
2359,1624384804.822,8134
2360,1624384804.824,8133
2361,1624384804.826,8134
2362,1624384804.828,8137
2363,1624384804.83,8140
2364,1624384804.832,8140
2365,1624384804.834,8137
2366,1624384804.836,8127
2367,1624384804.838,8112
2368,1624384804.84,8097
2369,1624384804.842,8085
2370,1624384804.844,8078
2371,1624384804.846,8077
2372,1624384804.848,8080
2373,1624384804.85,8082
2374,1624384804.852,8081
2375,1624384804.854,8077
2376,1624384804.856,8072
2377,1624384804.858,8067
2378,1624384804.86,8063
2379,1624384804.862,8060
2380,1624384804.864,8057
2381,1624384804.866,8055
2382,1624384804.868,8056
2383,1624384804.87,8055
2384,1624384804.872,8051
2385,1624384804.874,8043
2386,1624384804.876,8031
2387,1624384804.878,8019
2388,1624384804.88,8008
2389,1624384804.882,7998
2390,1624384804.884,7990
2391,1624384804.886,7986
2392,1624384804.888,7983
2393,1624384804.89,7982
2394,1624384804.892,7985
2395,1624384804.894,7990
2396,1624384804.896,7996
2397,1624384804.898,8000
2398,1624384804.9,8000
2399,1624384804.902,7995
2400,1624384804.904,7983
2401,1624384804.906,7968
2402,1624384804.908,7954
2403,1624384804.91,7946
2404,1624384804.912,7945
2405,1624384804.914,7952
2406,1624384804.916,7962
2407,1624384804.918,7975
2408,1624384804.92,7992
2409,1624384804.922,8014
2410,1624384804.924,8051
2411,1624384804.926,8102
2412,1624384804.928,8155
2413,1624384804.93,8201
2414,1624384804.932,8236
2415,1624384804.934,8256
2416,1624384804.936,8260
2417,1624384804.938,8255
2418,1624384804.94,8245
2419,1624384804.942,8235
2420,1624384804.944,8224
2421,1624384804.946,8209
2422,1624384804.948,8186
2423,1624384804.95,8155
2424,1624384804.952,8123
2425,1624384804.954,8103
2426,1624384804.956,8104
2427,1624384804.958,8123
2428,1624384804.96,8146
2429,1624384804.962,8162
2430,1624384804.964,8166
2431,1624384804.966,8164
2432,1624384804.968,8160
2433,1624384804.97,8153
2434,1624384804.972,8142
2435,1624384804.974,8126
2436,1624384804.976,8110
2437,1624384804.978,8092
2438,1624384804.98,8074
2439,1624384804.982,8058
2440,1624384804.984,8045
2441,1624384804.986,8038
2442,1624384804.988,8036
2443,1624384804.99,8038
2444,1624384804.992,8041
2445,1624384804.994,8043
2446,1624384804.996,8042
2447,1624384804.998,8035
2448,1624384805.0,8026
2449,1624384805.002,8021
2450,1624384805.004,8023
2451,1624384805.006,8031
2452,1624384805.008,8038
2453,1624384805.01,8042
2454,1624384805.012,8043
2455,1624384805.014,8042
2456,1624384805.016,8043
2457,1624384805.018,8044
2458,1624384805.02,8045
2459,1624384805.022,8046
2460,1624384805.024,8049
2461,1624384805.026,8055
2462,1624384805.028,8061
2463,1624384805.03,8066
2464,1624384805.032,8072
2465,1624384805.034,8079
2466,1624384805.036,8085
2467,1624384805.038,8088
2468,1624384805.04,8089
2469,1624384805.042,8089
2470,1624384805.044,8090
2471,1624384805.046,8092
2472,1624384805.048,8091
2473,1624384805.05,8090
2474,1624384805.052,8090
2475,1624384805.054,8092
2476,1624384805.056,8095
2477,1624384805.058,8095
2478,1624384805.06,8092
2479,1624384805.062,8085
2480,1624384805.064,8078
2481,1624384805.066,8071
2482,1624384805.068,8066
2483,1624384805.07,8063
2484,1624384805.072,8063
2485,1624384805.074,8065
2486,1624384805.076,8067
2487,1624384805.078,8068
2488,1624384805.08,8074
2489,1624384805.082,8082
2490,1624384805.084,8091
2491,1624384805.086,8097
2492,1624384805.088,8103
2493,1624384805.09,8110
2494,1624384805.092,8117
2495,1624384805.094,8124
2496,1624384805.096,8131
2497,1624384805.098,8139
2498,1624384805.1,8149
2499,1624384805.102,8158
2500,1624384805.104,8166
2501,1624384805.106,8172
2502,1624384805.108,8175
2503,1624384805.11,8175
2504,1624384805.112,8174
2505,1624384805.114,8171
2506,1624384805.116,8168
2507,1624384805.118,8166
2508,1624384805.12,8165
2509,1624384805.122,8167
2510,1624384805.124,8170
2511,1624384805.126,8172
2512,1624384805.128,8171
2513,1624384805.13,8168
2514,1624384805.132,8165
2515,1624384805.134,8166
2516,1624384805.136,8173
2517,1624384805.138,8182
2518,1624384805.14,8188
2519,1624384805.142,8190
2520,1624384805.144,8189
2521,1624384805.146,8188
2522,1624384805.148,8187
2523,1624384805.15,8187
2524,1624384805.152,8186
2525,1624384805.154,8183
2526,1624384805.156,8179
2527,1624384805.158,8173
2528,1624384805.16,8165
2529,1624384805.162,8158
2530,1624384805.164,8153
2531,1624384805.166,8153
2532,1624384805.168,8158
2533,1624384805.17,8169
2534,1624384805.172,8182
2535,1624384805.174,8191
2536,1624384805.176,8195
2537,1624384805.178,8193
2538,1624384805.18,8192
2539,1624384805.182,8194
2540,1624384805.184,8194
2541,1624384805.186,8189
2542,1624384805.188,8179
2543,1624384805.19,8167
2544,1624384805.192,8157
2545,1624384805.194,8153
2546,1624384805.196,8151
2547,1624384805.198,8148
2548,1624384805.2,8140
2549,1624384805.202,8125
2550,1624384805.204,8109
2551,1624384805.206,8098
2552,1624384805.208,8096
2553,1624384805.21,8099
2554,1624384805.212,8102
2555,1624384805.214,8103
2556,1624384805.216,8098
2557,1624384805.218,8093
2558,1624384805.22,8090
2559,1624384805.222,8089
2560,1624384805.224,8088
2561,1624384805.226,8086
2562,1624384805.228,8083
2563,1624384805.23,8081
2564,1624384805.232,8080
2565,1624384805.234,8080
2566,1624384805.236,8080
2567,1624384805.238,8081
2568,1624384805.24,8087
2569,1624384805.242,8092
2570,1624384805.244,8094
2571,1624384805.246,8092
2572,1624384805.248,8090
2573,1624384805.25,8090
2574,1624384805.252,8090
2575,1624384805.254,8089
2576,1624384805.256,8088
2577,1624384805.258,8088
2578,1624384805.26,8090
2579,1624384805.262,8092
2580,1624384805.264,8095
2581,1624384805.266,8097
2582,1624384805.268,8098
2583,1624384805.27,8097
2584,1624384805.272,8092
2585,1624384805.274,8086
2586,1624384805.276,8078
2587,1624384805.278,8073
2588,1624384805.28,8072
2589,1624384805.282,8075
2590,1624384805.284,8080
2591,1624384805.286,8085
2592,1624384805.288,8089
2593,1624384805.29,8092
2594,1624384805.292,8094
2595,1624384805.294,8095
2596,1624384805.296,8095
2597,1624384805.298,8095
2598,1624384805.3,8095
2599,1624384805.302,8096
2600,1624384805.304,8097
2601,1624384805.306,8100
2602,1624384805.308,8103
2603,1624384805.31,8106
2604,1624384805.312,8108
2605,1624384805.314,8109
2606,1624384805.316,8109
2607,1624384805.318,8110
2608,1624384805.32,8112
2609,1624384805.322,8115
2610,1624384805.324,8118
2611,1624384805.326,8120
2612,1624384805.328,8122
2613,1624384805.33,8124
2614,1624384805.332,8125
2615,1624384805.334,8126
2616,1624384805.336,8127
2617,1624384805.338,8129
2618,1624384805.34,8130
2619,1624384805.342,8132
2620,1624384805.344,8134
2621,1624384805.346,8136
2622,1624384805.348,8138
2623,1624384805.35,8139
2624,1624384805.352,8140
2625,1624384805.354,8141
2626,1624384805.356,8141
2627,1624384805.358,8141
2628,1624384805.36,8140
2629,1624384805.362,8140
2630,1624384805.364,8140
2631,1624384805.366,8142
2632,1624384805.368,8145
2633,1624384805.37,8148
2634,1624384805.372,8150
2635,1624384805.374,8151
2636,1624384805.376,8154
2637,1624384805.378,8157
2638,1624384805.38,8161
2639,1624384805.382,8165
2640,1624384805.384,8170
2641,1624384805.386,8174
2642,1624384805.388,8178
2643,1624384805.39,8181
2644,1624384805.392,8183
2645,1624384805.394,8185
2646,1624384805.396,8188
2647,1624384805.398,8190
2648,1624384805.4,8192
2649,1624384805.402,8194
2650,1624384805.404,8195
2651,1624384805.406,8197
2652,1624384805.408,8197
2653,1624384805.41,8197
2654,1624384805.412,8197
2655,1624384805.414,8198
2656,1624384805.416,8201
2657,1624384805.418,8206
2658,1624384805.42,8210
2659,1624384805.422,8212
2660,1624384805.424,8211
2661,1624384805.426,8208
2662,1624384805.428,8205
2663,1624384805.43,8204
2664,1624384805.432,8206
2665,1624384805.434,8208
2666,1624384805.436,8209
2667,1624384805.438,8209
2668,1624384805.44,8208
2669,1624384805.442,8208
2670,1624384805.444,8209
2671,1624384805.446,8209
2672,1624384805.448,8208
2673,1624384805.45,8207
2674,1624384805.452,8205
2675,1624384805.454,8204
2676,1624384805.456,8205
2677,1624384805.458,8206
2678,1624384805.46,8207
2679,1624384805.462,8209
2680,1624384805.464,8211
2681,1624384805.466,8214
2682,1624384805.468,8215
2683,1624384805.47,8217
2684,1624384805.472,8218
2685,1624384805.474,8217
2686,1624384805.476,8215
2687,1624384805.478,8212
2688,1624384805.48,8211
2689,1624384805.482,8212
2690,1624384805.484,8213
2691,1624384805.486,8214
2692,1624384805.488,8215
2693,1624384805.49,8216
2694,1624384805.492,8216
2695,1624384805.494,8216
2696,1624384805.496,8217
2697,1624384805.498,8219
2698,1624384805.5,8222
2699,1624384805.502,8225
2700,1624384805.504,8227
2701,1624384805.506,8228
2702,1624384805.508,8228
2703,1624384805.51,8227
2704,1624384805.512,8224
2705,1624384805.514,8221
2706,1624384805.516,8220
2707,1624384805.518,8221
2708,1624384805.52,8222
2709,1624384805.522,8223
2710,1624384805.524,8223
2711,1624384805.526,8222
2712,1624384805.528,8220
2713,1624384805.53,8218
2714,1624384805.532,8219
2715,1624384805.534,8221
2716,1624384805.536,8225
2717,1624384805.538,8231
2718,1624384805.54,8239
2719,1624384805.542,8248
2720,1624384805.544,8256
2721,1624384805.546,8262
2722,1624384805.548,8267
2723,1624384805.55,8271
2724,1624384805.552,8275
2725,1624384805.554,8278
2726,1624384805.556,8279
2727,1624384805.558,8277
2728,1624384805.56,8273
2729,1624384805.562,8273
2730,1624384805.564,8275
2731,1624384805.566,8277
2732,1624384805.568,8281
2733,1624384805.57,8285
2734,1624384805.572,8289
2735,1624384805.574,8293
2736,1624384805.576,8295
2737,1624384805.578,8295
2738,1624384805.58,8295
2739,1624384805.582,8296
2740,1624384805.584,8299
2741,1624384805.586,8304
2742,1624384805.588,8310
2743,1624384805.59,8317
2744,1624384805.592,8324
2745,1624384805.594,8331
2746,1624384805.596,8333
2747,1624384805.598,8332
2748,1624384805.6,8327
2749,1624384805.602,8324
2750,1624384805.604,8323
2751,1624384805.606,8325
2752,1624384805.608,8325
2753,1624384805.61,8322
2754,1624384805.612,8317
2755,1624384805.614,8310
2756,1624384805.616,8304
2757,1624384805.618,8301
2758,1624384805.62,8301
2759,1624384805.622,8304
2760,1624384805.624,8309
2761,1624384805.626,8313
2762,1624384805.628,8315
2763,1624384805.63,8314
2764,1624384805.632,8310
2765,1624384805.634,8305
2766,1624384805.636,8302
2767,1624384805.638,8302
2768,1624384805.64,8303
2769,1624384805.642,8307
2770,1624384805.644,8310
2771,1624384805.646,8313
2772,1624384805.648,8313
2773,1624384805.65,8315
2774,1624384805.652,8317
2775,1624384805.654,8319
2776,1624384805.656,8319
2777,1624384805.658,8316
2778,1624384805.66,8311
2779,1624384805.662,8303
2780,1624384805.664,8297
2781,1624384805.666,8295
2782,1624384805.668,8296
2783,1624384805.67,8300
2784,1624384805.672,8304
2785,1624384805.674,8307
2786,1624384805.676,8308
2787,1624384805.678,8309
2788,1624384805.68,8311
2789,1624384805.682,8315
2790,1624384805.684,8317
2791,1624384805.686,8317
2792,1624384805.688,8312
2793,1624384805.69,8305
2794,1624384805.692,8297
2795,1624384805.694,8294
2796,1624384805.696,8294
2797,1624384805.698,8296
2798,1624384805.7,8299
2799,1624384805.702,8303
2800,1624384805.704,8308
2801,1624384805.706,8310
2802,1624384805.708,8307
2803,1624384805.71,8300
2804,1624384805.712,8291
2805,1624384805.714,8284
2806,1624384805.716,8281
2807,1624384805.718,8281
2808,1624384805.72,8282
2809,1624384805.722,8283
2810,1624384805.724,8280
2811,1624384805.726,8274
2812,1624384805.728,8268
2813,1624384805.73,8268
2814,1624384805.732,8277
2815,1624384805.734,8288
2816,1624384805.736,8296
2817,1624384805.738,8296
2818,1624384805.74,8289
2819,1624384805.742,8281
2820,1624384805.744,8275
2821,1624384805.746,8271
2822,1624384805.748,8272
2823,1624384805.75,8278
2824,1624384805.752,8286
2825,1624384805.754,8291
2826,1624384805.756,8291
2827,1624384805.758,8286
2828,1624384805.76,8280
2829,1624384805.762,8275
2830,1624384805.764,8277
2831,1624384805.766,8281
2832,1624384805.768,8286
2833,1624384805.77,8291
2834,1624384805.772,8296
2835,1624384805.774,8296
2836,1624384805.776,8293
2837,1624384805.778,8287
2838,1624384805.78,8285
2839,1624384805.782,8284
2840,1624384805.784,8284
2841,1624384805.786,8283
2842,1624384805.788,8286
2843,1624384805.79,8292
2844,1624384805.792,8298
2845,1624384805.794,8304
2846,1624384805.796,8307
2847,1624384805.798,8307
2848,1624384805.8,8304
2849,1624384805.802,8298
2850,1624384805.804,8293
2851,1624384805.806,8291
2852,1624384805.808,8296
2853,1624384805.81,8304
2854,1624384805.812,8309
2855,1624384805.814,8308
2856,1624384805.816,8303
2857,1624384805.818,8296
2858,1624384805.82,8290
2859,1624384805.822,8287
2860,1624384805.824,8289
2861,1624384805.826,8293
2862,1624384805.828,8295
2863,1624384805.83,8293
2864,1624384805.832,8291
2865,1624384805.834,8289
2866,1624384805.836,8289
2867,1624384805.838,8291
2868,1624384805.84,8293
2869,1624384805.842,8294
2870,1624384805.844,8294
2871,1624384805.846,8291
2872,1624384805.848,8290
2873,1624384805.85,8292
2874,1624384805.852,8295
2875,1624384805.854,8297
2876,1624384805.856,8297
2877,1624384805.858,8294
2878,1624384805.86,8289
2879,1624384805.862,8284
2880,1624384805.864,8280
2881,1624384805.866,8279
2882,1624384805.868,8281
2883,1624384805.87,8284
2884,1624384805.872,8285
2885,1624384805.874,8284
2886,1624384805.876,8282
2887,1624384805.878,8280
2888,1624384805.88,8278
2889,1624384805.882,8277
2890,1624384805.884,8277
2891,1624384805.886,8279
2892,1624384805.888,8281
2893,1624384805.89,8283
2894,1624384805.892,8284
2895,1624384805.894,8285
2896,1624384805.896,8286
2897,1624384805.898,8287
2898,1624384805.9,8286
2899,1624384805.902,8283
2900,1624384805.904,8278
2901,1624384805.906,8274
2902,1624384805.908,8272
2903,1624384805.91,8273
2904,1624384805.912,8277
2905,1624384805.914,8282
2906,1624384805.916,8285
2907,1624384805.918,8284
2908,1624384805.92,8280
2909,1624384805.922,8277
2910,1624384805.924,8273
2911,1624384805.926,8271
2912,1624384805.928,8270
2913,1624384805.93,8269
2914,1624384805.932,8269
2915,1624384805.934,8267
2916,1624384805.936,8264
2917,1624384805.938,8259
2918,1624384805.94,8252
2919,1624384805.942,8247
2920,1624384805.944,8246
2921,1624384805.946,8247
2922,1624384805.948,8250
2923,1624384805.95,8254
2924,1624384805.952,8257
2925,1624384805.954,8256
2926,1624384805.956,8252
2927,1624384805.958,8248
2928,1624384805.96,8246
2929,1624384805.962,8246
2930,1624384805.964,8246
2931,1624384805.966,8245
2932,1624384805.968,8241
2933,1624384805.97,8236
2934,1624384805.972,8233
2935,1624384805.974,8231
2936,1624384805.976,8229
2937,1624384805.978,8226
2938,1624384805.98,8222
2939,1624384805.982,8221
2940,1624384805.984,8223
2941,1624384805.986,8227
2942,1624384805.988,8230
2943,1624384805.99,8229
2944,1624384805.992,8223
2945,1624384805.994,8213
2946,1624384805.996,8202
2947,1624384805.998,8195
2948,1624384806.0,8193
2949,1624384806.002,8193
2950,1624384806.004,8194
2951,1624384806.006,8195
2952,1624384806.008,8197
2953,1624384806.01,8197
2954,1624384806.012,8196
2955,1624384806.014,8194
2956,1624384806.016,8192
2957,1624384806.018,8189
2958,1624384806.02,8184
2959,1624384806.022,8178
2960,1624384806.024,8173
2961,1624384806.026,8169
2962,1624384806.028,8165
2963,1624384806.03,8159
2964,1624384806.032,8152
2965,1624384806.034,8145
2966,1624384806.036,8139
2967,1624384806.038,8134
2968,1624384806.04,8132
2969,1624384806.042,8131
2970,1624384806.044,8131
2971,1624384806.046,8134
2972,1624384806.048,8138
2973,1624384806.05,8141
2974,1624384806.052,8145
2975,1624384806.054,8146
2976,1624384806.056,8142
2977,1624384806.058,8134
2978,1624384806.06,8127
2979,1624384806.062,8123
2980,1624384806.064,8124
2981,1624384806.066,8130
2982,1624384806.068,8137
2983,1624384806.07,8146
2984,1624384806.072,8153
2985,1624384806.074,8158
2986,1624384806.076,8161
2987,1624384806.078,8166
2988,1624384806.08,8171
2989,1624384806.082,8175
2990,1624384806.084,8177
2991,1624384806.086,8175
2992,1624384806.088,8171
2993,1624384806.09,8169
2994,1624384806.092,8173
2995,1624384806.094,8182
2996,1624384806.096,8194
2997,1624384806.098,8203
2998,1624384806.1,8206
2999,1624384806.102,8204
3000,1624384806.104,8204
3001,1624384806.106,8206
3002,1624384806.108,8209
3003,1624384806.11,8210
3004,1624384806.112,8208
3005,1624384806.114,8205
3006,1624384806.116,8206
3007,1624384806.118,8208
3008,1624384806.12,8210
3009,1624384806.122,8209
3010,1624384806.124,8204
3011,1624384806.126,8199
3012,1624384806.128,8196
3013,1624384806.13,8196
3014,1624384806.132,8195
3015,1624384806.134,8191
3016,1624384806.136,8184
3017,1624384806.138,8176
3018,1624384806.14,8170
3019,1624384806.142,8166
3020,1624384806.144,8165
3021,1624384806.146,8163
3022,1624384806.148,8160
3023,1624384806.15,8154
3024,1624384806.152,8145
3025,1624384806.154,8138
3026,1624384806.156,8134
3027,1624384806.158,8132
3028,1624384806.16,8131
3029,1624384806.162,8130
3030,1624384806.164,8128
3031,1624384806.166,8124
3032,1624384806.168,8117
3033,1624384806.17,8109
3034,1624384806.172,8101
3035,1624384806.174,8093
3036,1624384806.176,8083
3037,1624384806.178,8075
3038,1624384806.18,8070
3039,1624384806.182,8068
3040,1624384806.184,8066
3041,1624384806.186,8063
3042,1624384806.188,8057
3043,1624384806.19,8051
3044,1624384806.192,8045
3045,1624384806.194,8041
3046,1624384806.196,8038
3047,1624384806.198,8036
3048,1624384806.2,8033
3049,1624384806.202,8030
3050,1624384806.204,8027
3051,1624384806.206,8024
3052,1624384806.208,8022
3053,1624384806.21,8021
3054,1624384806.212,8022
3055,1624384806.214,8024
3056,1624384806.216,8027
3057,1624384806.218,8029
3058,1624384806.22,8030
3059,1624384806.222,8032
3060,1624384806.224,8033
3061,1624384806.226,8030
3062,1624384806.228,8027
3063,1624384806.23,8027
3064,1624384806.232,8033
3065,1624384806.234,8043
3066,1624384806.236,8054
3067,1624384806.238,8063
3068,1624384806.24,8068
3069,1624384806.242,8072
3070,1624384806.244,8075
3071,1624384806.246,8078
3072,1624384806.248,8082
3073,1624384806.25,8087
3074,1624384806.252,8091
3075,1624384806.254,8096
3076,1624384806.256,8102
3077,1624384806.258,8107
3078,1624384806.26,8112
3079,1624384806.262,8115
3080,1624384806.264,8119
3081,1624384806.266,8123
3082,1624384806.268,8127
3083,1624384806.27,8133
3084,1624384806.272,8141
3085,1624384806.274,8150
3086,1624384806.276,8159
3087,1624384806.278,8167
3088,1624384806.28,8170
3089,1624384806.282,8171
3090,1624384806.284,8171
3091,1624384806.286,8172
3092,1624384806.288,8174
3093,1624384806.29,8177
3094,1624384806.292,8180
3095,1624384806.294,8183
3096,1624384806.296,8184
3097,1624384806.298,8185
3098,1624384806.3,8186
3099,1624384806.302,8188
3100,1624384806.304,8190
3101,1624384806.306,8195
3102,1624384806.308,8199
3103,1624384806.31,8204
3104,1624384806.312,8206
3105,1624384806.314,8205
3106,1624384806.316,8203
3107,1624384806.318,8201
3108,1624384806.32,8199
3109,1624384806.322,8198
3110,1624384806.324,8197
3111,1624384806.326,8196
3112,1624384806.328,8194
3113,1624384806.33,8193
3114,1624384806.332,8192
3115,1624384806.334,8193
3116,1624384806.336,8192
3117,1624384806.338,8192
3118,1624384806.34,8190
3119,1624384806.342,8189
3120,1624384806.344,8187
3121,1624384806.346,8183
3122,1624384806.348,8180
3123,1624384806.35,8178
3124,1624384806.352,8177
3125,1624384806.354,8177
3126,1624384806.356,8176
3127,1624384806.358,8174
3128,1624384806.36,8174
3129,1624384806.362,8174
3130,1624384806.364,8173
3131,1624384806.366,8170
3132,1624384806.368,8168
3133,1624384806.37,8166
3134,1624384806.372,8165
3135,1624384806.374,8164
3136,1624384806.376,8161
3137,1624384806.378,8159
3138,1624384806.38,8157
3139,1624384806.382,8156
3140,1624384806.384,8155
3141,1624384806.386,8154
3142,1624384806.388,8154
3143,1624384806.39,8157
3144,1624384806.392,8161
3145,1624384806.394,8165
3146,1624384806.396,8168
3147,1624384806.398,8171
3148,1624384806.4,8172
3149,1624384806.402,8173
3150,1624384806.404,8175
3151,1624384806.406,8179
3152,1624384806.408,8182
3153,1624384806.41,8186
3154,1624384806.412,8189
3155,1624384806.414,8192
3156,1624384806.416,8194
3157,1624384806.418,8195
3158,1624384806.42,8194
3159,1624384806.422,8192
3160,1624384806.424,8190
3161,1624384806.426,8188
3162,1624384806.428,8189
3163,1624384806.43,8192
3164,1624384806.432,8196
3165,1624384806.434,8201
3166,1624384806.436,8205
3167,1624384806.438,8208
3168,1624384806.44,8209
3169,1624384806.442,8208
3170,1624384806.444,8207
3171,1624384806.446,8206
3172,1624384806.448,8206
3173,1624384806.45,8204
3174,1624384806.452,8202
3175,1624384806.454,8199
3176,1624384806.456,8196
3177,1624384806.458,8192
3178,1624384806.46,8184
3179,1624384806.462,8176
3180,1624384806.464,8168
3181,1624384806.466,8164
3182,1624384806.468,8163
3183,1624384806.47,8163
3184,1624384806.472,8162
3185,1624384806.474,8161
3186,1624384806.476,8161
3187,1624384806.478,8162
3188,1624384806.48,8166
3189,1624384806.482,8169
3190,1624384806.484,8171
3191,1624384806.486,8172
3192,1624384806.488,8172
3193,1624384806.49,8171
3194,1624384806.492,8171
3195,1624384806.494,8170
3196,1624384806.496,8169
3197,1624384806.498,8166
3198,1624384806.5,8163
3199,1624384806.502,8162
3200,1624384806.504,8162
3201,1624384806.506,8164
3202,1624384806.508,8166
3203,1624384806.51,8166
3204,1624384806.512,8165
3205,1624384806.514,8162
3206,1624384806.516,8160
3207,1624384806.518,8159
3208,1624384806.52,8160
3209,1624384806.522,8161
3210,1624384806.524,8162
3211,1624384806.526,8162
3212,1624384806.528,8161
3213,1624384806.53,8160
3214,1624384806.532,8160
3215,1624384806.534,8159
3216,1624384806.536,8159
3217,1624384806.538,8161
3218,1624384806.54,8163
3219,1624384806.542,8164
3220,1624384806.544,8163
3221,1624384806.546,8161
3222,1624384806.548,8159
3223,1624384806.55,8155
3224,1624384806.552,8150
3225,1624384806.554,8146
3226,1624384806.556,8143
3227,1624384806.558,8141
3228,1624384806.56,8140
3229,1624384806.562,8137
3230,1624384806.564,8133
3231,1624384806.566,8129
3232,1624384806.568,8126
3233,1624384806.57,8123
3234,1624384806.572,8122
3235,1624384806.574,8121
3236,1624384806.576,8121
3237,1624384806.578,8121
3238,1624384806.58,8122
3239,1624384806.582,8124
3240,1624384806.584,8125
3241,1624384806.586,8125
3242,1624384806.588,8125
3243,1624384806.59,8125
3244,1624384806.592,8128
3245,1624384806.594,8132
3246,1624384806.596,8137
3247,1624384806.598,8140
3248,1624384806.6,8140
3249,1624384806.602,8139
3250,1624384806.604,8139
3251,1624384806.606,8139
3252,1624384806.608,8140
3253,1624384806.61,8141
3254,1624384806.612,8142
3255,1624384806.614,8142
3256,1624384806.616,8142
3257,1624384806.618,8142
3258,1624384806.62,8145
3259,1624384806.622,8149
3260,1624384806.624,8154
3261,1624384806.626,8159
3262,1624384806.628,8164
3263,1624384806.63,8169
3264,1624384806.632,8171
3265,1624384806.634,8172
3266,1624384806.636,8171
3267,1624384806.638,8170
3268,1624384806.64,8170
3269,1624384806.642,8172
3270,1624384806.644,8175
3271,1624384806.646,8180
3272,1624384806.648,8183
3273,1624384806.65,8184
3274,1624384806.652,8183
3275,1624384806.654,8182
3276,1624384806.656,8181
3277,1624384806.658,8181
3278,1624384806.66,8182
3279,1624384806.662,8183
3280,1624384806.664,8183
3281,1624384806.666,8182
3282,1624384806.668,8182
3283,1624384806.67,8181
3284,1624384806.672,8181
3285,1624384806.674,8180
3286,1624384806.676,8180
3287,1624384806.678,8181
3288,1624384806.68,8182
3289,1624384806.682,8184
3290,1624384806.684,8186
3291,1624384806.686,8189
3292,1624384806.688,8192
3293,1624384806.69,8195
3294,1624384806.692,8196
3295,1624384806.694,8198
3296,1624384806.696,8199
3297,1624384806.698,8200
3298,1624384806.7,8202
3299,1624384806.702,8204
3300,1624384806.704,8205
3301,1624384806.706,8206
3302,1624384806.708,8206
3303,1624384806.71,8205
3304,1624384806.712,8204
3305,1624384806.714,8202
3306,1624384806.716,8202
3307,1624384806.718,8202
3308,1624384806.72,8204
3309,1624384806.722,8206
3310,1624384806.724,8206
3311,1624384806.726,8204
3312,1624384806.728,8202
3313,1624384806.73,8200
3314,1624384806.732,8200
3315,1624384806.734,8200
3316,1624384806.736,8200
3317,1624384806.738,8199
3318,1624384806.74,8197
3319,1624384806.742,8196
3320,1624384806.744,8195
3321,1624384806.746,8195
3322,1624384806.748,8194
3323,1624384806.75,8194
3324,1624384806.752,8193
3325,1624384806.754,8193
3326,1624384806.756,8193
3327,1624384806.758,8195
3328,1624384806.76,8197
3329,1624384806.762,8198
3330,1624384806.764,8200
3331,1624384806.766,8203
3332,1624384806.768,8206
3333,1624384806.77,8208
3334,1624384806.772,8210
3335,1624384806.774,8213
3336,1624384806.776,8215
3337,1624384806.778,8215
3338,1624384806.78,8213
3339,1624384806.782,8212
3340,1624384806.784,8213
3341,1624384806.786,8217
3342,1624384806.788,8223
3343,1624384806.79,8228
3344,1624384806.792,8232
3345,1624384806.794,8233
3346,1624384806.796,8235
3347,1624384806.798,8236
3348,1624384806.8,8239
3349,1624384806.802,8241
3350,1624384806.804,8242
3351,1624384806.806,8242
3352,1624384806.808,8242
3353,1624384806.81,8240
3354,1624384806.812,8237
3355,1624384806.814,8235
3356,1624384806.816,8234
3357,1624384806.818,8234
3358,1624384806.82,8235
3359,1624384806.822,8237
3360,1624384806.824,8238
3361,1624384806.826,8239
3362,1624384806.828,8238
3363,1624384806.83,8237
3364,1624384806.832,8235
3365,1624384806.834,8234
3366,1624384806.836,8234
3367,1624384806.838,8234
3368,1624384806.84,8236
3369,1624384806.842,8238
3370,1624384806.844,8242
3371,1624384806.846,8247
3372,1624384806.848,8252
3373,1624384806.85,8256
3374,1624384806.852,8258
3375,1624384806.854,8260
3376,1624384806.856,8260
3377,1624384806.858,8260
3378,1624384806.86,8258
3379,1624384806.862,8255
3380,1624384806.864,8253
3381,1624384806.866,8252
3382,1624384806.868,8252
3383,1624384806.87,8250
3384,1624384806.872,8246
3385,1624384806.874,8241
3386,1624384806.876,8236
3387,1624384806.878,8232
3388,1624384806.88,8230
3389,1624384806.882,8229
3390,1624384806.884,8230
3391,1624384806.886,8233
3392,1624384806.888,8237
3393,1624384806.89,8239
3394,1624384806.892,8237
3395,1624384806.894,8234
3396,1624384806.896,8234
3397,1624384806.898,8237
3398,1624384806.9,8241
3399,1624384806.902,8245
3400,1624384806.904,8247
3401,1624384806.906,8247
3402,1624384806.908,8246
3403,1624384806.91,8246
3404,1624384806.912,8247
3405,1624384806.914,8251
3406,1624384806.916,8256
3407,1624384806.918,8262
3408,1624384806.92,8268
3409,1624384806.922,8272
3410,1624384806.924,8274
3411,1624384806.926,8274
3412,1624384806.928,8272
3413,1624384806.93,8268
3414,1624384806.932,8265
3415,1624384806.934,8263
3416,1624384806.936,8262
3417,1624384806.938,8263
3418,1624384806.94,8267
3419,1624384806.942,8276
3420,1624384806.944,8288
3421,1624384806.946,8303
3422,1624384806.948,8320
3423,1624384806.95,8340
3424,1624384806.952,8364
3425,1624384806.954,8390
3426,1624384806.956,8418
3427,1624384806.958,8444
3428,1624384806.96,8467
3429,1624384806.962,8490
3430,1624384806.964,8516
3431,1624384806.966,8544
3432,1624384806.968,8571
3433,1624384806.97,8598
3434,1624384806.972,8623
3435,1624384806.974,8646
3436,1624384806.976,8665
3437,1624384806.978,8683
3438,1624384806.98,8701
3439,1624384806.982,8720
3440,1624384806.984,8738
3441,1624384806.986,8753
3442,1624384806.988,8766
3443,1624384806.99,8777
3444,1624384806.992,8787
3445,1624384806.994,8795
3446,1624384806.996,8800
3447,1624384806.998,8803
3448,1624384807.0,8805
3449,1624384807.002,8807
3450,1624384807.004,8809
3451,1624384807.006,8810
3452,1624384807.008,8811
3453,1624384807.01,8811
3454,1624384807.012,8809
3455,1624384807.014,8808
3456,1624384807.016,8806
3457,1624384807.018,8806
3458,1624384807.02,8807
3459,1624384807.022,8807
3460,1624384807.024,8805
3461,1624384807.026,8802
3462,1624384807.028,8796
3463,1624384807.03,8788
3464,1624384807.032,8778
3465,1624384807.034,8768
3466,1624384807.036,8756
3467,1624384807.038,8743
3468,1624384807.04,8728
3469,1624384807.042,8713
3470,1624384807.044,8697
3471,1624384807.046,8682
3472,1624384807.048,8668
3473,1624384807.05,8657
3474,1624384807.052,8648
3475,1624384807.054,8641
3476,1624384807.056,8635
3477,1624384807.058,8629
3478,1624384807.06,8620
3479,1624384807.062,8609
3480,1624384807.064,8599
3481,1624384807.066,8591
3482,1624384807.068,8586
3483,1624384807.07,8582
3484,1624384807.072,8579
3485,1624384807.074,8575
3486,1624384807.076,8573
3487,1624384807.078,8570
3488,1624384807.08,8567
3489,1624384807.082,8566
3490,1624384807.084,8567
3491,1624384807.086,8567
3492,1624384807.088,8567
3493,1624384807.09,8567
3494,1624384807.092,8567
3495,1624384807.094,8566
3496,1624384807.096,8565
3497,1624384807.098,8560
3498,1624384807.1,8555
3499,1624384807.102,8550
3500,1624384807.104,8547
3501,1624384807.106,8546
3502,1624384807.108,8548
3503,1624384807.11,8551
3504,1624384807.112,8554
3505,1624384807.114,8555
3506,1624384807.116,8553
3507,1624384807.118,8549
3508,1624384807.12,8545
3509,1624384807.122,8542
3510,1624384807.124,8538
3511,1624384807.126,8534
3512,1624384807.128,8530
3513,1624384807.13,8525
3514,1624384807.132,8518
3515,1624384807.134,8511
3516,1624384807.136,8505
3517,1624384807.138,8500
3518,1624384807.14,8495
3519,1624384807.142,8488
3520,1624384807.144,8480
3521,1624384807.146,8471
3522,1624384807.148,8463
3523,1624384807.15,8455
3524,1624384807.152,8448
3525,1624384807.154,8440
3526,1624384807.156,8434
3527,1624384807.158,8428
3528,1624384807.16,8424
3529,1624384807.162,8421
3530,1624384807.164,8418
3531,1624384807.166,8415
3532,1624384807.168,8410
3533,1624384807.17,8405
3534,1624384807.172,8400
3535,1624384807.174,8394
3536,1624384807.176,8386
3537,1624384807.178,8377
3538,1624384807.18,8367
3539,1624384807.182,8357
3540,1624384807.184,8350
3541,1624384807.186,8346
3542,1624384807.188,8346
3543,1624384807.19,8348
3544,1624384807.192,8351
3545,1624384807.194,8352
3546,1624384807.196,8350
3547,1624384807.198,8345
3548,1624384807.2,8339
3549,1624384807.202,8333
3550,1624384807.204,8326
3551,1624384807.206,8318
3552,1624384807.208,8309
3553,1624384807.21,8297
3554,1624384807.212,8284
3555,1624384807.214,8271
3556,1624384807.216,8260
3557,1624384807.218,8251
3558,1624384807.22,8246
3559,1624384807.222,8241
3560,1624384807.224,8235
3561,1624384807.226,8227
3562,1624384807.228,8218
3563,1624384807.23,8208
3564,1624384807.232,8197
3565,1624384807.234,8187
3566,1624384807.236,8179
3567,1624384807.238,8171
3568,1624384807.24,8161
3569,1624384807.242,8151
3570,1624384807.244,8143
3571,1624384807.246,8135
3572,1624384807.248,8129
3573,1624384807.25,8122
3574,1624384807.252,8117
3575,1624384807.254,8114
3576,1624384807.256,8114
3577,1624384807.258,8115
3578,1624384807.26,8117
3579,1624384807.262,8119
3580,1624384807.264,8121
3581,1624384807.266,8123
3582,1624384807.268,8125
3583,1624384807.27,8128
3584,1624384807.272,8130
3585,1624384807.274,8133
3586,1624384807.276,8135
3587,1624384807.278,8136
3588,1624384807.28,8137
3589,1624384807.282,8135
3590,1624384807.284,8131
3591,1624384807.286,8125
3592,1624384807.288,8116
3593,1624384807.29,8103
3594,1624384807.292,8091
3595,1624384807.294,8085
3596,1624384807.296,8085
3597,1624384807.298,8089
3598,1624384807.3,8093
3599,1624384807.302,8098
3600,1624384807.304,8103
3601,1624384807.306,8109
3602,1624384807.308,8117
3603,1624384807.31,8125
3604,1624384807.312,8129
3605,1624384807.314,8129
3606,1624384807.316,8129
3607,1624384807.318,8131
3608,1624384807.32,8134
3609,1624384807.322,8141
3610,1624384807.324,8149
3611,1624384807.326,8156
3612,1624384807.328,8161
3613,1624384807.33,8166
3614,1624384807.332,8171
3615,1624384807.334,8179
3616,1624384807.336,8187
3617,1624384807.338,8195
3618,1624384807.34,8201
3619,1624384807.342,8204
3620,1624384807.344,8204
3621,1624384807.346,8201
3622,1624384807.348,8195
3623,1624384807.35,8190
3624,1624384807.352,8185
3625,1624384807.354,8183
3626,1624384807.356,8182
3627,1624384807.358,8182
3628,1624384807.36,8185
3629,1624384807.362,8194
3630,1624384807.364,8205
3631,1624384807.366,8216
3632,1624384807.368,8227
3633,1624384807.37,8238
3634,1624384807.372,8251
3635,1624384807.374,8265
3636,1624384807.376,8277
3637,1624384807.378,8287
3638,1624384807.38,8293
3639,1624384807.382,8296
3640,1624384807.384,8299
3641,1624384807.386,8304
3642,1624384807.388,8312
3643,1624384807.39,8324
3644,1624384807.392,8338
3645,1624384807.394,8355
3646,1624384807.396,8374
3647,1624384807.398,8394
3648,1624384807.4,8413
3649,1624384807.402,8432
3650,1624384807.404,8453
3651,1624384807.406,8472
3652,1624384807.408,8490
3653,1624384807.41,8505
3654,1624384807.412,8517
3655,1624384807.414,8525
3656,1624384807.416,8529
3657,1624384807.418,8531
3658,1624384807.42,8532
3659,1624384807.422,8534
3660,1624384807.424,8535
3661,1624384807.426,8536
3662,1624384807.428,8536
3663,1624384807.43,8536
3664,1624384807.432,8537
3665,1624384807.434,8542
3666,1624384807.436,8548
3667,1624384807.438,8554
3668,1624384807.44,8556
3669,1624384807.442,8556
3670,1624384807.444,8555
3671,1624384807.446,8553
3672,1624384807.448,8551
3673,1624384807.45,8549
3674,1624384807.452,8549
3675,1624384807.454,8551
3676,1624384807.456,8554
3677,1624384807.458,8558
3678,1624384807.46,8559
3679,1624384807.462,8558
3680,1624384807.464,8556
3681,1624384807.466,8553
3682,1624384807.468,8548
3683,1624384807.47,8541
3684,1624384807.472,8533
3685,1624384807.474,8524
3686,1624384807.476,8514
3687,1624384807.478,8504
3688,1624384807.48,8495
3689,1624384807.482,8486
3690,1624384807.484,8479
3691,1624384807.486,8470
3692,1624384807.488,8461
3693,1624384807.49,8450
3694,1624384807.492,8438
3695,1624384807.494,8427
3696,1624384807.496,8416
3697,1624384807.498,8405
3698,1624384807.5,8396
3699,1624384807.502,8388
3700,1624384807.504,8380
3701,1624384807.506,8375
3702,1624384807.508,8371
3703,1624384807.51,8367
3704,1624384807.512,8360
3705,1624384807.514,8352
3706,1624384807.516,8342
3707,1624384807.518,8334
3708,1624384807.52,8328
3709,1624384807.522,8322
3710,1624384807.524,8319
3711,1624384807.526,8317
3712,1624384807.528,8315
3713,1624384807.53,8315
3714,1624384807.532,8314
3715,1624384807.534,8313
3716,1624384807.536,8312
3717,1624384807.538,8311
3718,1624384807.54,8309
3719,1624384807.542,8308
3720,1624384807.544,8304
3721,1624384807.546,8298
3722,1624384807.548,8292
3723,1624384807.55,8288
3724,1624384807.552,8284
3725,1624384807.554,8280
3726,1624384807.556,8278
3727,1624384807.558,8277
3728,1624384807.56,8275
3729,1624384807.562,8274
3730,1624384807.564,8272
3731,1624384807.566,8269
3732,1624384807.568,8267
3733,1624384807.57,8264
3734,1624384807.572,8262
3735,1624384807.574,8260
3736,1624384807.576,8258
3737,1624384807.578,8256
3738,1624384807.58,8254
3739,1624384807.582,8252
3740,1624384807.584,8252
3741,1624384807.586,8252
3742,1624384807.588,8252
3743,1624384807.59,8252
3744,1624384807.592,8251
3745,1624384807.594,8250
3746,1624384807.596,8248
3747,1624384807.598,8247
3748,1624384807.6,8247
3749,1624384807.602,8246
3750,1624384807.604,8246
3751,1624384807.606,8245
3752,1624384807.608,8243
3753,1624384807.61,8241
3754,1624384807.612,8238
3755,1624384807.614,8237
3756,1624384807.616,8237
3757,1624384807.618,8239
3758,1624384807.62,8241
3759,1624384807.622,8242
3760,1624384807.624,8242
3761,1624384807.626,8242
3762,1624384807.628,8241
3763,1624384807.63,8242
3764,1624384807.632,8244
3765,1624384807.634,8250
3766,1624384807.636,8258
3767,1624384807.638,8265
3768,1624384807.64,8270
3769,1624384807.642,8272
3770,1624384807.644,8269
3771,1624384807.646,8265
3772,1624384807.648,8261
3773,1624384807.65,8257
3774,1624384807.652,8252
3775,1624384807.654,8247
3776,1624384807.656,8241
3777,1624384807.658,8232
3778,1624384807.66,8222
3779,1624384807.662,8211
3780,1624384807.664,8203
3781,1624384807.666,8196
3782,1624384807.668,8189
3783,1624384807.67,8181
3784,1624384807.672,8172
3785,1624384807.674,8164
3786,1624384807.676,8158
3787,1624384807.678,8155
3788,1624384807.68,8153
3789,1624384807.682,8150
3790,1624384807.684,8146
3791,1624384807.686,8141
3792,1624384807.688,8137
3793,1624384807.69,8134
3794,1624384807.692,8132
3795,1624384807.694,8130
3796,1624384807.696,8128
3797,1624384807.698,8127
3798,1624384807.7,8125
3799,1624384807.702,8124
3800,1624384807.704,8122
3801,1624384807.706,8117
3802,1624384807.708,8110
3803,1624384807.71,8102
3804,1624384807.712,8095
3805,1624384807.714,8088
3806,1624384807.716,8083
3807,1624384807.718,8078
3808,1624384807.72,8074
3809,1624384807.722,8070
3810,1624384807.724,8069
3811,1624384807.726,8068
3812,1624384807.728,8066
3813,1624384807.73,8062
3814,1624384807.732,8057
3815,1624384807.734,8051
3816,1624384807.736,8045
3817,1624384807.738,8041
3818,1624384807.74,8038
3819,1624384807.742,8038
3820,1624384807.744,8038
3821,1624384807.746,8040
3822,1624384807.748,8043
3823,1624384807.75,8047
3824,1624384807.752,8050
3825,1624384807.754,8053
3826,1624384807.756,8055
3827,1624384807.758,8055
3828,1624384807.76,8055
3829,1624384807.762,8055
3830,1624384807.764,8055
3831,1624384807.766,8056
3832,1624384807.768,8056
3833,1624384807.77,8057
3834,1624384807.772,8059
3835,1624384807.774,8063
3836,1624384807.776,8067
3837,1624384807.778,8070
3838,1624384807.78,8068
3839,1624384807.782,8066
3840,1624384807.784,8066
3841,1624384807.786,8068
3842,1624384807.788,8073
3843,1624384807.79,8080
3844,1624384807.792,8086
3845,1624384807.794,8090
3846,1624384807.796,8092
3847,1624384807.798,8095
3848,1624384807.8,8100
3849,1624384807.802,8110
3850,1624384807.804,8122
3851,1624384807.806,8136
3852,1624384807.808,8149
3853,1624384807.81,8160
3854,1624384807.812,8168
3855,1624384807.814,8173
3856,1624384807.816,8178
3857,1624384807.818,8183
3858,1624384807.82,8192
3859,1624384807.822,8205
3860,1624384807.824,8221
3861,1624384807.826,8236
3862,1624384807.828,8251
3863,1624384807.83,8266
3864,1624384807.832,8282
3865,1624384807.834,8299
3866,1624384807.836,8315
3867,1624384807.838,8326
3868,1624384807.84,8333
3869,1624384807.842,8337
3870,1624384807.844,8341
3871,1624384807.846,8346
3872,1624384807.848,8352
3873,1624384807.85,8359
3874,1624384807.852,8365
3875,1624384807.854,8369
3876,1624384807.856,8371
3877,1624384807.858,8373
3878,1624384807.86,8373
3879,1624384807.862,8374
3880,1624384807.864,8378
3881,1624384807.866,8386
3882,1624384807.868,8396
3883,1624384807.87,8403
3884,1624384807.872,8407
3885,1624384807.874,8406
3886,1624384807.876,8403
3887,1624384807.878,8399
3888,1624384807.88,8393
3889,1624384807.882,8386
3890,1624384807.884,8379
3891,1624384807.886,8372
3892,1624384807.888,8366
3893,1624384807.89,8365
3894,1624384807.892,8367
3895,1624384807.894,8371
3896,1624384807.896,8374
3897,1624384807.898,8374
3898,1624384807.9,8371
3899,1624384807.902,8368
3900,1624384807.904,8369
3901,1624384807.906,8377
3902,1624384807.908,8389
3903,1624384807.91,8400
3904,1624384807.912,8409
3905,1624384807.914,8414
3906,1624384807.916,8414
3907,1624384807.918,8410
3908,1624384807.92,8403
3909,1624384807.922,8394
3910,1624384807.924,8385
3911,1624384807.926,8378
3912,1624384807.928,8372
3913,1624384807.93,8367
3914,1624384807.932,8361
3915,1624384807.934,8354
3916,1624384807.936,8347
3917,1624384807.938,8337
3918,1624384807.94,8327
3919,1624384807.942,8317
3920,1624384807.944,8307
3921,1624384807.946,8295
3922,1624384807.948,8282
3923,1624384807.95,8269
3924,1624384807.952,8256
3925,1624384807.954,8244
3926,1624384807.956,8231
3927,1624384807.958,8219
3928,1624384807.96,8208
3929,1624384807.962,8199
3930,1624384807.964,8192
3931,1624384807.966,8187
3932,1624384807.968,8183
3933,1624384807.97,8180
3934,1624384807.972,8178
3935,1624384807.974,8178
3936,1624384807.976,8180
3937,1624384807.978,8185
3938,1624384807.98,8192
3939,1624384807.982,8199
3940,1624384807.984,8206
3941,1624384807.986,8211
3942,1624384807.988,8217
3943,1624384807.99,8224
3944,1624384807.992,8231
3945,1624384807.994,8240
3946,1624384807.996,8249
3947,1624384807.998,8258
3948,1624384808.0,8267
3949,1624384808.002,8275
3950,1624384808.004,8280
3951,1624384808.006,8282
3952,1624384808.008,8283
3953,1624384808.01,8285
3954,1624384808.012,8288
3955,1624384808.014,8292
3956,1624384808.016,8296
3957,1624384808.018,8299
3958,1624384808.02,8303
3959,1624384808.022,8305
3960,1624384808.024,8307
3961,1624384808.026,8306
3962,1624384808.028,8306
3963,1624384808.03,8307
3964,1624384808.032,8308
3965,1624384808.034,8310
3966,1624384808.036,8310
3967,1624384808.038,8308
3968,1624384808.04,8304
3969,1624384808.042,8301
3970,1624384808.044,8298
3971,1624384808.046,8297
3972,1624384808.048,8296
3973,1624384808.05,8295
3974,1624384808.052,8292
3975,1624384808.054,8289
3976,1624384808.056,8285
3977,1624384808.058,8281
3978,1624384808.06,8277
3979,1624384808.062,8271
3980,1624384808.064,8266
3981,1624384808.066,8261
3982,1624384808.068,8256
3983,1624384808.07,8250
3984,1624384808.072,8245
3985,1624384808.074,8241
3986,1624384808.076,8237
3987,1624384808.078,8235
3988,1624384808.08,8232
3989,1624384808.082,8229
3990,1624384808.084,8225
3991,1624384808.086,8219
3992,1624384808.088,8215
3993,1624384808.09,8212
3994,1624384808.092,8210
3995,1624384808.094,8208
3996,1624384808.096,8205
3997,1624384808.098,8200
3998,1624384808.1,8193
3999,1624384808.102,8188
4000,1624384808.104,8185
4001,1624384808.106,8183
4002,1624384808.108,8180
4003,1624384808.11,8173
4004,1624384808.112,8164
4005,1624384808.114,8155
4006,1624384808.116,8148
4007,1624384808.118,8142
4008,1624384808.12,8137
4009,1624384808.122,8133
4010,1624384808.124,8128
4011,1624384808.126,8122
4012,1624384808.128,8116
4013,1624384808.13,8111
4014,1624384808.132,8107
4015,1624384808.134,8103
4016,1624384808.136,8099
4017,1624384808.138,8093
4018,1624384808.14,8086
4019,1624384808.142,8080
4020,1624384808.144,8073
4021,1624384808.146,8068
4022,1624384808.148,8064
4023,1624384808.15,8061
4024,1624384808.152,8059
4025,1624384808.154,8059
4026,1624384808.156,8061
4027,1624384808.158,8064
4028,1624384808.16,8066
4029,1624384808.162,8067
4030,1624384808.164,8067
4031,1624384808.166,8066
4032,1624384808.168,8064
4033,1624384808.17,8061
4034,1624384808.172,8058
4035,1624384808.174,8055
4036,1624384808.176,8053
4037,1624384808.178,8052
4038,1624384808.18,8049
4039,1624384808.182,8045
4040,1624384808.184,8040
4041,1624384808.186,8035
4042,1624384808.188,8031
4043,1624384808.19,8028
4044,1624384808.192,8025
4045,1624384808.194,8023
4046,1624384808.196,8021
4047,1624384808.198,8019
4048,1624384808.2,8018
4049,1624384808.202,8016
4050,1624384808.204,8013
4051,1624384808.206,8011
4052,1624384808.208,8009
4053,1624384808.21,8009
4054,1624384808.212,8009
4055,1624384808.214,8010
4056,1624384808.216,8010
4057,1624384808.218,8010
4058,1624384808.22,8009
4059,1624384808.222,8009
4060,1624384808.224,8008
4061,1624384808.226,8006
4062,1624384808.228,8007
4063,1624384808.23,8011
4064,1624384808.232,8018
4065,1624384808.234,8027
4066,1624384808.236,8036
4067,1624384808.238,8045
4068,1624384808.24,8052
4069,1624384808.242,8058
4070,1624384808.244,8063
4071,1624384808.246,8066
4072,1624384808.248,8069
4073,1624384808.25,8071
4074,1624384808.252,8072
4075,1624384808.254,8074
4076,1624384808.256,8079
4077,1624384808.258,8087
4078,1624384808.26,8097
4079,1624384808.262,8107
4080,1624384808.264,8117
4081,1624384808.266,8127
4082,1624384808.268,8135
4083,1624384808.27,8140
4084,1624384808.272,8142
4085,1624384808.274,8143
4086,1624384808.276,8143
4087,1624384808.278,8145
4088,1624384808.28,8150
4089,1624384808.282,8157
4090,1624384808.284,8165
4091,1624384808.286,8174
4092,1624384808.288,8183
4093,1624384808.29,8192
4094,1624384808.292,8201
4095,1624384808.294,8210
4096,1624384808.296,8217
4097,1624384808.298,8222
4098,1624384808.3,8223
4099,1624384808.302,8223
4100,1624384808.304,8220
4101,1624384808.306,8217
4102,1624384808.308,8212
4103,1624384808.31,8206
4104,1624384808.312,8200
4105,1624384808.314,8194
4106,1624384808.316,8188
4107,1624384808.318,8182
4108,1624384808.32,8177
4109,1624384808.322,8173
4110,1624384808.324,8170
4111,1624384808.326,8169
4112,1624384808.328,8171
4113,1624384808.33,8174
4114,1624384808.332,8178
4115,1624384808.334,8181
4116,1624384808.336,8183
4117,1624384808.338,8182
4118,1624384808.34,8180
4119,1624384808.342,8177
4120,1624384808.344,8174
4121,1624384808.346,8171
4122,1624384808.348,8168
4123,1624384808.35,8167
4124,1624384808.352,8168
4125,1624384808.354,8169
4126,1624384808.356,8174
4127,1624384808.358,8179
4128,1624384808.36,8184
4129,1624384808.362,8185
4130,1624384808.364,8185
4131,1624384808.366,8187
4132,1624384808.368,8196
4133,1624384808.37,8210
4134,1624384808.372,8227
4135,1624384808.374,8243
4136,1624384808.376,8256
4137,1624384808.378,8264
4138,1624384808.38,8267
4139,1624384808.382,8268
4140,1624384808.384,8266
4141,1624384808.386,8263
4142,1624384808.388,8259
4143,1624384808.39,8256
4144,1624384808.392,8252
4145,1624384808.394,8247
4146,1624384808.396,8241
4147,1624384808.398,8233
4148,1624384808.4,8222
4149,1624384808.402,8212
4150,1624384808.404,8202
4151,1624384808.406,8193
4152,1624384808.408,8185
4153,1624384808.41,8177
4154,1624384808.412,8168
4155,1624384808.414,8158
4156,1624384808.416,8149
4157,1624384808.418,8141
4158,1624384808.42,8134
4159,1624384808.422,8129
4160,1624384808.424,8125
4161,1624384808.426,8123
4162,1624384808.428,8121
4163,1624384808.43,8121
4164,1624384808.432,8123
4165,1624384808.434,8127
4166,1624384808.436,8132
4167,1624384808.438,8138
4168,1624384808.44,8143
4169,1624384808.442,8147
4170,1624384808.444,8149
4171,1624384808.446,8152
4172,1624384808.448,8156
4173,1624384808.45,8159
4174,1624384808.452,8163
4175,1624384808.454,8165
4176,1624384808.456,8167
4177,1624384808.458,8168
4178,1624384808.46,8168
4179,1624384808.462,8169
4180,1624384808.464,8169
4181,1624384808.466,8170
4182,1624384808.468,8170
4183,1624384808.47,8170
4184,1624384808.472,8171
4185,1624384808.474,8172
4186,1624384808.476,8173
4187,1624384808.478,8175
4188,1624384808.48,8178
4189,1624384808.482,8182
4190,1624384808.484,8185
4191,1624384808.486,8187
4192,1624384808.488,8187
4193,1624384808.49,8183
4194,1624384808.492,8180
4195,1624384808.494,8179
4196,1624384808.496,8183
4197,1624384808.498,8189
4198,1624384808.5,8199
4199,1624384808.502,8207
4200,1624384808.504,8214
4201,1624384808.506,8217
4202,1624384808.508,8217
4203,1624384808.51,8217
4204,1624384808.512,8216
4205,1624384808.514,8214
4206,1624384808.516,8213
4207,1624384808.518,8210
4208,1624384808.52,8206
4209,1624384808.522,8199
4210,1624384808.524,8190
4211,1624384808.526,8180
4212,1624384808.528,8170
4213,1624384808.53,8161
4214,1624384808.532,8155
4215,1624384808.534,8153
4216,1624384808.536,8153
4217,1624384808.538,8154
4218,1624384808.54,8157
4219,1624384808.542,8159
4220,1624384808.544,8161
4221,1624384808.546,8162
4222,1624384808.548,8161
4223,1624384808.55,8162
4224,1624384808.552,8162
4225,1624384808.554,8162
4226,1624384808.556,8162
4227,1624384808.558,8162
4228,1624384808.56,8164
4229,1624384808.562,8168
4230,1624384808.564,8173
4231,1624384808.566,8178
4232,1624384808.568,8182
4233,1624384808.57,8187
4234,1624384808.572,8191
4235,1624384808.574,8196
4236,1624384808.576,8201
4237,1624384808.578,8205
4238,1624384808.58,8209
4239,1624384808.582,8210
4240,1624384808.584,8209
4241,1624384808.586,8205
4242,1624384808.588,8199
4243,1624384808.59,8191
4244,1624384808.592,8181
4245,1624384808.594,8172
4246,1624384808.596,8163
4247,1624384808.598,8155
4248,1624384808.6,8148
4249,1624384808.602,8141
4250,1624384808.604,8133
4251,1624384808.606,8126
4252,1624384808.608,8121
4253,1624384808.61,8116
4254,1624384808.612,8111
4255,1624384808.614,8106
4256,1624384808.616,8101
4257,1624384808.618,8096
4258,1624384808.62,8091
4259,1624384808.622,8087
4260,1624384808.624,8084
4261,1624384808.626,8082
4262,1624384808.628,8079
4263,1624384808.63,8073
4264,1624384808.632,8065
4265,1624384808.634,8055
4266,1624384808.636,8045
4267,1624384808.638,8037
4268,1624384808.64,8031
4269,1624384808.642,8026
4270,1624384808.644,8021
4271,1624384808.646,8016
4272,1624384808.648,8009
4273,1624384808.65,8003
4274,1624384808.652,7998
4275,1624384808.654,7993
4276,1624384808.656,7988
4277,1624384808.658,7982
4278,1624384808.66,7977
4279,1624384808.662,7972
4280,1624384808.664,7968
4281,1624384808.666,7965
4282,1624384808.668,7964
4283,1624384808.67,7965
4284,1624384808.672,7967
4285,1624384808.674,7968
4286,1624384808.676,7969
4287,1624384808.678,7971
4288,1624384808.68,7973
4289,1624384808.682,7976
4290,1624384808.684,7977
4291,1624384808.686,7979
4292,1624384808.688,7982
4293,1624384808.69,7985
4294,1624384808.692,7987
4295,1624384808.694,7988
4296,1624384808.696,7987
4297,1624384808.698,7985
4298,1624384808.7,7984
4299,1624384808.702,7982
4300,1624384808.704,7980
4301,1624384808.706,7977
4302,1624384808.708,7972
4303,1624384808.71,7969
4304,1624384808.712,7969
4305,1624384808.714,7975
4306,1624384808.716,7984
4307,1624384808.718,7994
4308,1624384808.72,8003
4309,1624384808.722,8011
4310,1624384808.724,8017
4311,1624384808.726,8022
4312,1624384808.728,8025
4313,1624384808.73,8028
4314,1624384808.732,8029
4315,1624384808.734,8032
4316,1624384808.736,8036
4317,1624384808.738,8041
4318,1624384808.74,8046
4319,1624384808.742,8051
4320,1624384808.744,8054
4321,1624384808.746,8057
4322,1624384808.748,8060
4323,1624384808.75,8066
4324,1624384808.752,8075
4325,1624384808.754,8084
4326,1624384808.756,8091
4327,1624384808.758,8093
4328,1624384808.76,8092
4329,1624384808.762,8093
4330,1624384808.764,8097
4331,1624384808.766,8106
4332,1624384808.768,8120
4333,1624384808.77,8136
4334,1624384808.772,8152
4335,1624384808.774,8166
4336,1624384808.776,8178
4337,1624384808.778,8187
4338,1624384808.78,8195
4339,1624384808.782,8201
4340,1624384808.784,8205
4341,1624384808.786,8208
4342,1624384808.788,8211
4343,1624384808.79,8212
4344,1624384808.792,8213
4345,1624384808.794,8212
4346,1624384808.796,8210
4347,1624384808.798,8208
4348,1624384808.8,8206
4349,1624384808.802,8203
4350,1624384808.804,8198
4351,1624384808.806,8194
4352,1624384808.808,8189
4353,1624384808.81,8186
4354,1624384808.812,8188
4355,1624384808.814,8195
4356,1624384808.816,8204
4357,1624384808.818,8215
4358,1624384808.82,8227
4359,1624384808.822,8239
4360,1624384808.824,8252
4361,1624384808.826,8263
4362,1624384808.828,8273
4363,1624384808.83,8281
4364,1624384808.832,8288
4365,1624384808.834,8294
4366,1624384808.836,8300
4367,1624384808.838,8303
4368,1624384808.84,8306
4369,1624384808.842,8308
4370,1624384808.844,8309
4371,1624384808.846,8311
4372,1624384808.848,8315
4373,1624384808.85,8322
4374,1624384808.852,8330
4375,1624384808.854,8337
4376,1624384808.856,8343
4377,1624384808.858,8346
4378,1624384808.86,8347
4379,1624384808.862,8347
4380,1624384808.864,8346
4381,1624384808.866,8344
4382,1624384808.868,8342
4383,1624384808.87,8340
4384,1624384808.872,8337
4385,1624384808.874,8334
4386,1624384808.876,8332
4387,1624384808.878,8328
4388,1624384808.88,8324
4389,1624384808.882,8318
4390,1624384808.884,8313
4391,1624384808.886,8307
4392,1624384808.888,8301
4393,1624384808.89,8295
4394,1624384808.892,8289
4395,1624384808.894,8283
4396,1624384808.896,8277
4397,1624384808.898,8269
4398,1624384808.9,8260
4399,1624384808.902,8253
4400,1624384808.904,8248
4401,1624384808.906,8246
4402,1624384808.908,8246
4403,1624384808.91,8246
4404,1624384808.912,8247
4405,1624384808.914,8247
4406,1624384808.916,8246
4407,1624384808.918,8245
4408,1624384808.92,8244
4409,1624384808.922,8244
4410,1624384808.924,8245
4411,1624384808.926,8247
4412,1624384808.928,8251
4413,1624384808.93,8256
4414,1624384808.932,8261
4415,1624384808.934,8266
4416,1624384808.936,8270
4417,1624384808.938,8271
4418,1624384808.94,8272
4419,1624384808.942,8272
4420,1624384808.944,8270
4421,1624384808.946,8266
4422,1624384808.948,8261
4423,1624384808.95,8255
4424,1624384808.952,8250
4425,1624384808.954,8248
4426,1624384808.956,8247
4427,1624384808.958,8249
4428,1624384808.96,8251
4429,1624384808.962,8252
4430,1624384808.964,8252
4431,1624384808.966,8253
4432,1624384808.968,8254
4433,1624384808.97,8256
4434,1624384808.972,8257
4435,1624384808.974,8259
4436,1624384808.976,8262
4437,1624384808.978,8265
4438,1624384808.98,8268
4439,1624384808.982,8270
4440,1624384808.984,8271
4441,1624384808.986,8273
4442,1624384808.988,8276
4443,1624384808.99,8279
4444,1624384808.992,8281
4445,1624384808.994,8281
4446,1624384808.996,8279
4447,1624384808.998,8274
4448,1624384809.0,8269
4449,1624384809.002,8264
4450,1624384809.004,8260
4451,1624384809.006,8256
4452,1624384809.008,8253
4453,1624384809.01,8248
4454,1624384809.012,8244
4455,1624384809.014,8238
4456,1624384809.016,8231
4457,1624384809.018,8226
4458,1624384809.02,8221
4459,1624384809.022,8216
4460,1624384809.024,8210
4461,1624384809.026,8204
4462,1624384809.028,8197
4463,1624384809.03,8187
4464,1624384809.032,8177
4465,1624384809.034,8168
4466,1624384809.036,8159
4467,1624384809.038,8152
4468,1624384809.04,8145
4469,1624384809.042,8141
4470,1624384809.044,8139
4471,1624384809.046,8140
4472,1624384809.048,8140
4473,1624384809.05,8139
4474,1624384809.052,8135
4475,1624384809.054,8131
4476,1624384809.056,8127
4477,1624384809.058,8121
4478,1624384809.06,8114
4479,1624384809.062,8106
4480,1624384809.064,8097
4481,1624384809.066,8089
4482,1624384809.068,8082
4483,1624384809.07,8076
4484,1624384809.072,8070
4485,1624384809.074,8064
4486,1624384809.076,8059
4487,1624384809.078,8055
4488,1624384809.08,8054
4489,1624384809.082,8053
4490,1624384809.084,8052
4491,1624384809.086,8052
4492,1624384809.088,8052
4493,1624384809.09,8052
4494,1624384809.092,8052
4495,1624384809.094,8051
4496,1624384809.096,8049
4497,1624384809.098,8046
4498,1624384809.1,8043
4499,1624384809.102,8042
4500,1624384809.104,8042
4501,1624384809.106,8043
4502,1624384809.108,8045
4503,1624384809.11,8045
4504,1624384809.112,8045
4505,1624384809.114,8045
4506,1624384809.116,8047
4507,1624384809.118,8050
4508,1624384809.12,8053
4509,1624384809.122,8057
4510,1624384809.124,8060
4511,1624384809.126,8063
4512,1624384809.128,8065
4513,1624384809.13,8067
4514,1624384809.132,8068
4515,1624384809.134,8070
4516,1624384809.136,8071
4517,1624384809.138,8072
4518,1624384809.14,8074
4519,1624384809.142,8076
4520,1624384809.144,8079
4521,1624384809.146,8080
4522,1624384809.148,8078
4523,1624384809.15,8074
4524,1624384809.152,8072
4525,1624384809.154,8075
4526,1624384809.156,8082
4527,1624384809.158,8089
4528,1624384809.16,8095
4529,1624384809.162,8097
4530,1624384809.164,8096
4531,1624384809.166,8095
4532,1624384809.168,8092
4533,1624384809.17,8089
4534,1624384809.172,8088
4535,1624384809.174,8087
4536,1624384809.176,8085
4537,1624384809.178,8084
4538,1624384809.18,8085
4539,1624384809.182,8088
4540,1624384809.184,8092
4541,1624384809.186,8095
4542,1624384809.188,8096
4543,1624384809.19,8096
4544,1624384809.192,8095
4545,1624384809.194,8094
4546,1624384809.196,8093
4547,1624384809.198,8092
4548,1624384809.2,8091
4549,1624384809.202,8092
4550,1624384809.204,8093
4551,1624384809.206,8095
4552,1624384809.208,8097
4553,1624384809.21,8102
4554,1624384809.212,8107
4555,1624384809.214,8113
4556,1624384809.216,8118
4557,1624384809.218,8121
4558,1624384809.22,8123
4559,1624384809.222,8124
4560,1624384809.224,8124
4561,1624384809.226,8122
4562,1624384809.228,8121
4563,1624384809.23,8121
4564,1624384809.232,8123
4565,1624384809.234,8125
4566,1624384809.236,8127
4567,1624384809.238,8128
4568,1624384809.24,8128
4569,1624384809.242,8127
4570,1624384809.244,8125
4571,1624384809.246,8123
4572,1624384809.248,8121
4573,1624384809.25,8122
4574,1624384809.252,8124
4575,1624384809.254,8127
4576,1624384809.256,8132
4577,1624384809.258,8139
4578,1624384809.26,8147
4579,1624384809.262,8154
4580,1624384809.264,8162
4581,1624384809.266,8169
4582,1624384809.268,8175
4583,1624384809.27,8179
4584,1624384809.272,8182
4585,1624384809.274,8186
4586,1624384809.276,8190
4587,1624384809.278,8197
4588,1624384809.28,8206
4589,1624384809.282,8215
4590,1624384809.284,8225
4591,1624384809.286,8234
4592,1624384809.288,8242
4593,1624384809.29,8249
4594,1624384809.292,8254
4595,1624384809.294,8257
4596,1624384809.296,8261
4597,1624384809.298,8264
4598,1624384809.3,8267
4599,1624384809.302,8268
4600,1624384809.304,8267
4601,1624384809.306,8265
4602,1624384809.308,8263
4603,1624384809.31,8261
4604,1624384809.312,8261
4605,1624384809.314,8263
4606,1624384809.316,8267
4607,1624384809.318,8271
4608,1624384809.32,8273
4609,1624384809.322,8274
4610,1624384809.324,8273
4611,1624384809.326,8272
4612,1624384809.328,8270
4613,1624384809.33,8269
4614,1624384809.332,8269
4615,1624384809.334,8270
4616,1624384809.336,8270
4617,1624384809.338,8269
4618,1624384809.34,8268
4619,1624384809.342,8267
4620,1624384809.344,8267
4621,1624384809.346,8265
4622,1624384809.348,8262
4623,1624384809.35,8259
4624,1624384809.352,8258
4625,1624384809.354,8259
4626,1624384809.356,8261
4627,1624384809.358,8264
4628,1624384809.36,8266
4629,1624384809.362,8268
4630,1624384809.364,8268
4631,1624384809.366,8267
4632,1624384809.368,8267
4633,1624384809.37,8267
4634,1624384809.372,8267
4635,1624384809.374,8264
4636,1624384809.376,8259
4637,1624384809.378,8250
4638,1624384809.38,8240
4639,1624384809.382,8231
4640,1624384809.384,8224
4641,1624384809.386,8219
4642,1624384809.388,8216
4643,1624384809.39,8214
4644,1624384809.392,8215
4645,1624384809.394,8218
4646,1624384809.396,8221
4647,1624384809.398,8225
4648,1624384809.4,8227
4649,1624384809.402,8226
4650,1624384809.404,8225
4651,1624384809.406,8224
4652,1624384809.408,8224
4653,1624384809.41,8224
4654,1624384809.412,8224
4655,1624384809.414,8225
4656,1624384809.416,8227
4657,1624384809.418,8230
4658,1624384809.42,8232
4659,1624384809.422,8234
4660,1624384809.424,8236
4661,1624384809.426,8235
4662,1624384809.428,8235
4663,1624384809.43,8235
4664,1624384809.432,8237
4665,1624384809.434,8238
4666,1624384809.436,8237
4667,1624384809.438,8234
4668,1624384809.44,8228
4669,1624384809.442,8222
4670,1624384809.444,8217
4671,1624384809.446,8213
4672,1624384809.448,8210
4673,1624384809.45,8208
4674,1624384809.452,8205
4675,1624384809.454,8201
4676,1624384809.456,8197
4677,1624384809.458,8194
4678,1624384809.46,8194
4679,1624384809.462,8195
4680,1624384809.464,8194
4681,1624384809.466,8189
4682,1624384809.468,8180
4683,1624384809.47,8172
4684,1624384809.472,8165
4685,1624384809.474,8160
4686,1624384809.476,8155
4687,1624384809.478,8150
4688,1624384809.48,8145
4689,1624384809.482,8140
4690,1624384809.484,8136
4691,1624384809.486,8132
4692,1624384809.488,8127
4693,1624384809.49,8122
4694,1624384809.492,8116
4695,1624384809.494,8111
4696,1624384809.496,8105
4697,1624384809.498,8099
4698,1624384809.5,8093
4699,1624384809.502,8089
4700,1624384809.504,8087
4701,1624384809.506,8087
4702,1624384809.508,8086
4703,1624384809.51,8086
4704,1624384809.512,8086
4705,1624384809.514,8085
4706,1624384809.516,8085
4707,1624384809.518,8085
4708,1624384809.52,8082
4709,1624384809.522,8077
4710,1624384809.524,8070
4711,1624384809.526,8062
4712,1624384809.528,8054
4713,1624384809.53,8048
4714,1624384809.532,8043
4715,1624384809.534,8040
4716,1624384809.536,8036
4717,1624384809.538,8032
4718,1624384809.54,8028
4719,1624384809.542,8026
4720,1624384809.544,8028
4721,1624384809.546,8033
4722,1624384809.548,8039
4723,1624384809.55,8042
4724,1624384809.552,8042
4725,1624384809.554,8039
4726,1624384809.556,8034
4727,1624384809.558,8027
4728,1624384809.56,8020
4729,1624384809.562,8013
4730,1624384809.564,8006
4731,1624384809.566,8002
4732,1624384809.568,8003
4733,1624384809.57,8007
4734,1624384809.572,8014
4735,1624384809.574,8018
4736,1624384809.576,8019
4737,1624384809.578,8017
4738,1624384809.58,8014
4739,1624384809.582,8014
4740,1624384809.584,8016
4741,1624384809.586,8018
4742,1624384809.588,8019
4743,1624384809.59,8019
4744,1624384809.592,8020
4745,1624384809.594,8019
4746,1624384809.596,8018
4747,1624384809.598,8016
4748,1624384809.6,8016
4749,1624384809.602,8017
4750,1624384809.604,8019
4751,1624384809.606,8021
4752,1624384809.608,8021
4753,1624384809.61,8018
4754,1624384809.612,8014
4755,1624384809.614,8012
4756,1624384809.616,8013
4757,1624384809.618,8018
4758,1624384809.62,8025
4759,1624384809.622,8033
4760,1624384809.624,8040
4761,1624384809.626,8044
4762,1624384809.628,8045
4763,1624384809.63,8047
4764,1624384809.632,8050
4765,1624384809.634,8052
4766,1624384809.636,8053
4767,1624384809.638,8054
4768,1624384809.64,8054
4769,1624384809.642,8053
4770,1624384809.644,8052
4771,1624384809.646,8053
4772,1624384809.648,8057
4773,1624384809.65,8063
4774,1624384809.652,8071
4775,1624384809.654,8077
4776,1624384809.656,8081
4777,1624384809.658,8084
4778,1624384809.66,8084
4779,1624384809.662,8082
4780,1624384809.664,8079
4781,1624384809.666,8078
4782,1624384809.668,8080
4783,1624384809.67,8084
4784,1624384809.672,8088
4785,1624384809.674,8091
4786,1624384809.676,8091
4787,1624384809.678,8090
4788,1624384809.68,8089
4789,1624384809.682,8088
4790,1624384809.684,8088
4791,1624384809.686,8089
4792,1624384809.688,8090
4793,1624384809.69,8089
4794,1624384809.692,8086
4795,1624384809.694,8083
4796,1624384809.696,8081
4797,1624384809.698,8080
4798,1624384809.7,8081
4799,1624384809.702,8082
4800,1624384809.704,8085
4801,1624384809.706,8089
4802,1624384809.708,8094
4803,1624384809.71,8101
4804,1624384809.712,8109
4805,1624384809.714,8117
4806,1624384809.716,8125
4807,1624384809.718,8132
4808,1624384809.72,8138
4809,1624384809.722,8143
4810,1624384809.724,8148
4811,1624384809.726,8153
4812,1624384809.728,8158
4813,1624384809.73,8163
4814,1624384809.732,8168
4815,1624384809.734,8174
4816,1624384809.736,8181
4817,1624384809.738,8188
4818,1624384809.74,8194
4819,1624384809.742,8199
4820,1624384809.744,8202
4821,1624384809.746,8203
4822,1624384809.748,8203
4823,1624384809.75,8204
4824,1624384809.752,8207
4825,1624384809.754,8212
4826,1624384809.756,8220
4827,1624384809.758,8229
4828,1624384809.76,8237
4829,1624384809.762,8243
4830,1624384809.764,8245
4831,1624384809.766,8243
4832,1624384809.768,8238
4833,1624384809.77,8231
4834,1624384809.772,8225
4835,1624384809.774,8221
4836,1624384809.776,8220
4837,1624384809.778,8220
4838,1624384809.78,8220
4839,1624384809.782,8222
4840,1624384809.784,8224
4841,1624384809.786,8227
4842,1624384809.788,8229
4843,1624384809.79,8231
4844,1624384809.792,8234
4845,1624384809.794,8238
4846,1624384809.796,8241
4847,1624384809.798,8244
4848,1624384809.8,8245
4849,1624384809.802,8246
4850,1624384809.804,8249
4851,1624384809.806,8251
4852,1624384809.808,8253
4853,1624384809.81,8254
4854,1624384809.812,8255
4855,1624384809.814,8255
4856,1624384809.816,8254
4857,1624384809.818,8252
4858,1624384809.82,8252
4859,1624384809.822,8251
4860,1624384809.824,8249
4861,1624384809.826,8248
4862,1624384809.828,8246
4863,1624384809.83,8244
4864,1624384809.832,8243
4865,1624384809.834,8243
4866,1624384809.836,8243
4867,1624384809.838,8244
4868,1624384809.84,8245
4869,1624384809.842,8246
4870,1624384809.844,8248
4871,1624384809.846,8250
4872,1624384809.848,8253
4873,1624384809.85,8255
4874,1624384809.852,8256
4875,1624384809.854,8256
4876,1624384809.856,8257
4877,1624384809.858,8259
4878,1624384809.86,8263
4879,1624384809.862,8266
4880,1624384809.864,8269
4881,1624384809.866,8269
4882,1624384809.868,8267
4883,1624384809.87,8264
4884,1624384809.872,8259
4885,1624384809.874,8255
