,times,values
10730000,1593586672.688,8223
10730001,1593586672.69,8224
10730002,1593586672.692,8223
10730003,1593586672.694,8220
10730004,1593586672.696,8217
10730005,1593586672.698,8212
10730006,1593586672.7,8208
10730007,1593586672.702,8204
10730008,1593586672.704,8200
10730009,1593586672.706,8196
10730010,1593586672.708,8191
10730011,1593586672.71,8188
10730012,1593586672.712,8185
10730013,1593586672.714,8183
10730014,1593586672.716,8183
10730015,1593586672.718,8183
10730016,1593586672.72,8182
10730017,1593586672.722,8182
10730018,1593586672.724,8182
10730019,1593586672.726,8182
10730020,1593586672.728,8182
10730021,1593586672.73,8182
10730022,1593586672.732,8182
10730023,1593586672.734,8183
10730024,1593586672.736,8183
10730025,1593586672.738,8183
10730026,1593586672.74,8183
10730027,1593586672.742,8183
10730028,1593586672.744,8182
10730029,1593586672.746,8182
10730030,1593586672.748,8181
10730031,1593586672.75,8181
10730032,1593586672.752,8182
10730033,1593586672.754,8182
10730034,1593586672.756,8183
10730035,1593586672.758,8183
10730036,1593586672.76,8183
10730037,1593586672.762,8183
10730038,1593586672.764,8183
10730039,1593586672.766,8183
10730040,1593586672.768,8183
10730041,1593586672.77,8183
10730042,1593586672.772,8184
10730043,1593586672.774,8184
10730044,1593586672.776,8184
10730045,1593586672.778,8184
10730046,1593586672.78,8184
10730047,1593586672.782,8183
10730048,1593586672.784,8183
10730049,1593586672.786,8184
10730050,1593586672.788,8184
10730051,1593586672.79,8185
10730052,1593586672.792,8185
10730053,1593586672.794,8185
10730054,1593586672.796,8186
10730055,1593586672.798,8186
10730056,1593586672.8,8186
10730057,1593586672.802,8186
10730058,1593586672.804,8187
10730059,1593586672.806,8187
10730060,1593586672.808,8189
10730061,1593586672.81,8191
10730062,1593586672.812,8196
10730063,1593586672.814,8204
10730064,1593586672.816,8216
10730065,1593586672.818,8234
10730066,1593586672.82,8258
10730067,1593586672.822,8285
10730068,1593586672.824,8315
10730069,1593586672.826,8345
10730070,1593586672.828,8372
10730071,1593586672.83,8392
10730072,1593586672.832,8403
10730073,1593586672.834,8403
10730074,1593586672.836,8392
10730075,1593586672.838,8368
10730076,1593586672.84,8330
10730077,1593586672.842,8285
10730078,1593586672.844,8237
10730079,1593586672.846,8190
10730080,1593586672.848,8146
10730081,1593586672.85,8110
10730082,1593586672.852,8086
10730083,1593586672.854,8070
10730084,1593586672.856,8053
10730085,1593586672.858,8027
10730086,1593586672.86,7990
10730087,1593586672.862,7947
10730088,1593586672.864,7905
10730089,1593586672.866,7869
10730090,1593586672.868,7846
10730091,1593586672.87,7842
10730092,1593586672.872,7856
10730093,1593586672.874,7881
10730094,1593586672.876,7911
10730095,1593586672.878,7944
10730096,1593586672.88,7982
10730097,1593586672.882,8025
10730098,1593586672.884,8068
10730099,1593586672.886,8107
10730100,1593586672.888,8136
10730101,1593586672.89,8157
10730102,1593586672.892,8169
10730103,1593586672.894,8176
10730104,1593586672.896,8180
10730105,1593586672.898,8181
10730106,1593586672.9,8182
10730107,1593586672.902,8182
10730108,1593586672.904,8182
10730109,1593586672.906,8182
10730110,1593586672.908,8183
10730111,1593586672.91,8183
10730112,1593586672.912,8183
10730113,1593586672.914,8182
10730114,1593586672.916,8182
10730115,1593586672.918,8182
10730116,1593586672.92,8182
10730117,1593586672.922,8182
10730118,1593586672.924,8182
10730119,1593586672.926,8182
10730120,1593586672.928,8182
10730121,1593586672.93,8181
10730122,1593586672.932,8181
10730123,1593586672.934,8181
10730124,1593586672.936,8181
10730125,1593586672.938,8181
10730126,1593586672.94,8180
10730127,1593586672.942,8180
10730128,1593586672.944,8180
10730129,1593586672.946,8180
10730130,1593586672.948,8179
10730131,1593586672.95,8179
10730132,1593586672.952,8179
10730133,1593586672.954,8178
10730134,1593586672.956,8178
10730135,1593586672.958,8179
10730136,1593586672.96,8179
10730137,1593586672.962,8178
10730138,1593586672.964,8178
10730139,1593586672.966,8177
10730140,1593586672.968,8177
10730141,1593586672.97,8177
10730142,1593586672.972,8177
10730143,1593586672.974,8177
10730144,1593586672.976,8177
10730145,1593586672.978,8177
10730146,1593586672.98,8177
10730147,1593586672.982,8176
10730148,1593586672.984,8175
10730149,1593586672.986,8175
10730150,1593586672.988,8175
10730151,1593586672.99,8175
10730152,1593586672.992,8175
10730153,1593586672.994,8175
10730154,1593586672.996,8175
10730155,1593586672.998,8174
10730156,1593586673.0,8173
10730157,1593586673.002,8173
10730158,1593586673.004,8173
10730159,1593586673.006,8173
10730160,1593586673.008,8173
10730161,1593586673.01,8173
10730162,1593586673.012,8173
10730163,1593586673.014,8172
10730164,1593586673.016,8172
10730165,1593586673.018,8171
10730166,1593586673.02,8171
10730167,1593586673.022,8171
10730168,1593586673.024,8171
10730169,1593586673.026,8171
10730170,1593586673.028,8172
10730171,1593586673.03,8172
10730172,1593586673.032,8171
10730173,1593586673.034,8171
10730174,1593586673.036,8171
10730175,1593586673.038,8171
10730176,1593586673.04,8171
10730177,1593586673.042,8171
10730178,1593586673.044,8171
10730179,1593586673.046,8171
10730180,1593586673.048,8170
10730181,1593586673.05,8170
10730182,1593586673.052,8170
10730183,1593586673.054,8171
10730184,1593586673.056,8171
10730185,1593586673.058,8172
10730186,1593586673.06,8172
10730187,1593586673.062,8173
10730188,1593586673.064,8172
10730189,1593586673.066,8172
10730190,1593586673.068,8172
10730191,1593586673.07,8172
10730192,1593586673.072,8173
10730193,1593586673.074,8174
10730194,1593586673.076,8174
10730195,1593586673.078,8174
10730196,1593586673.08,8174
10730197,1593586673.082,8174
10730198,1593586673.084,8174
10730199,1593586673.086,8174
10730200,1593586673.088,8175
10730201,1593586673.09,8175
10730202,1593586673.092,8176
10730203,1593586673.094,8177
10730204,1593586673.096,8177
10730205,1593586673.098,8177
10730206,1593586673.1,8178
10730207,1593586673.102,8178
10730208,1593586673.104,8179
10730209,1593586673.106,8180
10730210,1593586673.108,8181
10730211,1593586673.11,8181
10730212,1593586673.112,8182
10730213,1593586673.114,8183
10730214,1593586673.116,8184
10730215,1593586673.118,8186
10730216,1593586673.12,8187
10730217,1593586673.122,8188
10730218,1593586673.124,8189
10730219,1593586673.126,8190
10730220,1593586673.128,8191
10730221,1593586673.13,8192
10730222,1593586673.132,8193
10730223,1593586673.134,8194
10730224,1593586673.136,8195
10730225,1593586673.138,8197
10730226,1593586673.14,8198
10730227,1593586673.142,8200
10730228,1593586673.144,8201
10730229,1593586673.146,8203
10730230,1593586673.148,8204
10730231,1593586673.15,8205
10730232,1593586673.152,8206
10730233,1593586673.154,8208
10730234,1593586673.156,8210
10730235,1593586673.158,8211
10730236,1593586673.16,8213
10730237,1593586673.162,8215
10730238,1593586673.164,8216
10730239,1593586673.166,8218
10730240,1593586673.168,8219
10730241,1593586673.17,8221
10730242,1593586673.172,8223
10730243,1593586673.174,8225
10730244,1593586673.176,8227
10730245,1593586673.178,8228
10730246,1593586673.18,8229
10730247,1593586673.182,8231
10730248,1593586673.184,8232
10730249,1593586673.186,8234
10730250,1593586673.188,8235
10730251,1593586673.19,8237
10730252,1593586673.192,8238
10730253,1593586673.194,8239
10730254,1593586673.196,8239
10730255,1593586673.198,8240
10730256,1593586673.2,8240
10730257,1593586673.202,8240
10730258,1593586673.204,8240
10730259,1593586673.206,8241
10730260,1593586673.208,8241
10730261,1593586673.21,8241
10730262,1593586673.212,8240
10730263,1593586673.214,8240
10730264,1593586673.216,8239
10730265,1593586673.218,8238
10730266,1593586673.22,8237
10730267,1593586673.222,8236
10730268,1593586673.224,8235
10730269,1593586673.226,8234
10730270,1593586673.228,8233
10730271,1593586673.23,8231
10730272,1593586673.232,8230
10730273,1593586673.234,8230
10730274,1593586673.236,8229
10730275,1593586673.238,8229
10730276,1593586673.24,8229
10730277,1593586673.242,8228
10730278,1593586673.244,8226
10730279,1593586673.246,8225
10730280,1593586673.248,8224
10730281,1593586673.25,8223
10730282,1593586673.252,8222
10730283,1593586673.254,8223
10730284,1593586673.256,8224
10730285,1593586673.258,8225
10730286,1593586673.26,8226
10730287,1593586673.262,8228
10730288,1593586673.264,8230
10730289,1593586673.266,8232
10730290,1593586673.268,8233
10730291,1593586673.27,8232
10730292,1593586673.272,8231
10730293,1593586673.274,8229
10730294,1593586673.276,8228
10730295,1593586673.278,8227
10730296,1593586673.28,8225
10730297,1593586673.282,8225
10730298,1593586673.284,8225
10730299,1593586673.286,8226
10730300,1593586673.288,8227
10730301,1593586673.29,8227
10730302,1593586673.292,8225
10730303,1593586673.294,8222
10730304,1593586673.296,8218
10730305,1593586673.298,8214
10730306,1593586673.3,8210
10730307,1593586673.302,8205
10730308,1593586673.304,8200
10730309,1593586673.306,8195
10730310,1593586673.308,8191
10730311,1593586673.31,8188
10730312,1593586673.312,8186
10730313,1593586673.314,8185
10730314,1593586673.316,8185
10730315,1593586673.318,8185
10730316,1593586673.32,8185
10730317,1593586673.322,8184
10730318,1593586673.324,8184
10730319,1593586673.326,8183
10730320,1593586673.328,8183
10730321,1593586673.33,8184
10730322,1593586673.332,8184
10730323,1593586673.334,8184
10730324,1593586673.336,8184
10730325,1593586673.338,8184
10730326,1593586673.34,8184
10730327,1593586673.342,8184
10730328,1593586673.344,8183
10730329,1593586673.346,8183
10730330,1593586673.348,8183
10730331,1593586673.35,8183
10730332,1593586673.352,8184
10730333,1593586673.354,8184
10730334,1593586673.356,8184
10730335,1593586673.358,8184
10730336,1593586673.36,8184
10730337,1593586673.362,8184
10730338,1593586673.364,8184
10730339,1593586673.366,8184
10730340,1593586673.368,8184
10730341,1593586673.37,8184
10730342,1593586673.372,8184
10730343,1593586673.374,8184
10730344,1593586673.376,8184
10730345,1593586673.378,8183
10730346,1593586673.38,8183
10730347,1593586673.382,8183
10730348,1593586673.384,8183
10730349,1593586673.386,8184
10730350,1593586673.388,8185
10730351,1593586673.39,8185
10730352,1593586673.392,8186
10730353,1593586673.394,8186
10730354,1593586673.396,8186
10730355,1593586673.398,8186
10730356,1593586673.4,8186
10730357,1593586673.402,8187
10730358,1593586673.404,8187
10730359,1593586673.406,8188
10730360,1593586673.408,8190
10730361,1593586673.41,8193
10730362,1593586673.412,8199
10730363,1593586673.414,8208
10730364,1593586673.416,8222
10730365,1593586673.418,8241
10730366,1593586673.42,8264
10730367,1593586673.422,8291
10730368,1593586673.424,8320
10730369,1593586673.426,8349
10730370,1593586673.428,8375
10730371,1593586673.43,8394
10730372,1593586673.432,8403
10730373,1593586673.434,8400
10730374,1593586673.436,8384
10730375,1593586673.438,8354
10730376,1593586673.44,8316
10730377,1593586673.442,8272
10730378,1593586673.444,8225
10730379,1593586673.446,8179
10730380,1593586673.448,8137
10730381,1593586673.45,8104
10730382,1593586673.452,8081
10730383,1593586673.454,8064
10730384,1593586673.456,8043
10730385,1593586673.458,8012
10730386,1593586673.46,7973
10730387,1593586673.462,7932
10730388,1593586673.464,7895
10730389,1593586673.466,7864
10730390,1593586673.468,7847
10730391,1593586673.47,7846
10730392,1593586673.472,7862
10730393,1593586673.474,7888
10730394,1593586673.476,7921
10730395,1593586673.478,7960
10730396,1593586673.48,8002
10730397,1593586673.482,8046
10730398,1593586673.484,8086
10730399,1593586673.486,8119
10730400,1593586673.488,8145
10730401,1593586673.49,8161
10730402,1593586673.492,8171
10730403,1593586673.494,8177
10730404,1593586673.496,8180
10730405,1593586673.498,8182
10730406,1593586673.5,8183
10730407,1593586673.502,8183
10730408,1593586673.504,8183
10730409,1593586673.506,8183
10730410,1593586673.508,8183
10730411,1593586673.51,8183
10730412,1593586673.512,8183
10730413,1593586673.514,8182
10730414,1593586673.516,8182
10730415,1593586673.518,8182
10730416,1593586673.52,8182
10730417,1593586673.522,8182
10730418,1593586673.524,8182
10730419,1593586673.526,8182
10730420,1593586673.528,8182
10730421,1593586673.53,8182
10730422,1593586673.532,8182
10730423,1593586673.534,8182
10730424,1593586673.536,8182
10730425,1593586673.538,8181
10730426,1593586673.54,8181
10730427,1593586673.542,8181
10730428,1593586673.544,8181
10730429,1593586673.546,8180
10730430,1593586673.548,8180
10730431,1593586673.55,8179
10730432,1593586673.552,8178
10730433,1593586673.554,8178
10730434,1593586673.556,8178
10730435,1593586673.558,8179
10730436,1593586673.56,8179
10730437,1593586673.562,8178
10730438,1593586673.564,8178
10730439,1593586673.566,8177
10730440,1593586673.568,8177
10730441,1593586673.57,8177
10730442,1593586673.572,8177
10730443,1593586673.574,8177
10730444,1593586673.576,8177
10730445,1593586673.578,8176
10730446,1593586673.58,8176
10730447,1593586673.582,8175
10730448,1593586673.584,8175
10730449,1593586673.586,8174
10730450,1593586673.588,8174
10730451,1593586673.59,8175
10730452,1593586673.592,8175
10730453,1593586673.594,8175
10730454,1593586673.596,8175
10730455,1593586673.598,8175
10730456,1593586673.6,8174
10730457,1593586673.602,8174
10730458,1593586673.604,8174
10730459,1593586673.606,8174
10730460,1593586673.608,8174
10730461,1593586673.61,8174
10730462,1593586673.612,8174
10730463,1593586673.614,8173
10730464,1593586673.616,8173
10730465,1593586673.618,8173
10730466,1593586673.62,8172
10730467,1593586673.622,8172
10730468,1593586673.624,8172
10730469,1593586673.626,8171
10730470,1593586673.628,8171
10730471,1593586673.63,8172
10730472,1593586673.632,8172
10730473,1593586673.634,8172
10730474,1593586673.636,8172
10730475,1593586673.638,8172
10730476,1593586673.64,8172
10730477,1593586673.642,8172
10730478,1593586673.644,8172
10730479,1593586673.646,8171
10730480,1593586673.648,8171
10730481,1593586673.65,8171
10730482,1593586673.652,8171
10730483,1593586673.654,8171
10730484,1593586673.656,8171
10730485,1593586673.658,8171
10730486,1593586673.66,8171
10730487,1593586673.662,8171
10730488,1593586673.664,8171
10730489,1593586673.666,8171
10730490,1593586673.668,8171
10730491,1593586673.67,8172
10730492,1593586673.672,8172
10730493,1593586673.674,8173
10730494,1593586673.676,8173
10730495,1593586673.678,8174
10730496,1593586673.68,8174
10730497,1593586673.682,8173
10730498,1593586673.684,8173
10730499,1593586673.686,8173
10730500,1593586673.688,8174
10730501,1593586673.69,8175
10730502,1593586673.692,8176
10730503,1593586673.694,8176
10730504,1593586673.696,8177
10730505,1593586673.698,8177
10730506,1593586673.7,8178
10730507,1593586673.702,8178
10730508,1593586673.704,8179
10730509,1593586673.706,8179
10730510,1593586673.708,8180
10730511,1593586673.71,8181
10730512,1593586673.712,8181
10730513,1593586673.714,8182
10730514,1593586673.716,8183
10730515,1593586673.718,8185
10730516,1593586673.72,8186
10730517,1593586673.722,8187
10730518,1593586673.724,8188
10730519,1593586673.726,8189
10730520,1593586673.728,8190
10730521,1593586673.73,8191
10730522,1593586673.732,8192
10730523,1593586673.734,8193
10730524,1593586673.736,8194
10730525,1593586673.738,8196
10730526,1593586673.74,8197
10730527,1593586673.742,8199
10730528,1593586673.744,8200
10730529,1593586673.746,8202
10730530,1593586673.748,8203
10730531,1593586673.75,8204
10730532,1593586673.752,8205
10730533,1593586673.754,8207
10730534,1593586673.756,8209
10730535,1593586673.758,8211
10730536,1593586673.76,8213
10730537,1593586673.762,8215
10730538,1593586673.764,8217
10730539,1593586673.766,8218
10730540,1593586673.768,8219
10730541,1593586673.77,8220
10730542,1593586673.772,8222
10730543,1593586673.774,8224
10730544,1593586673.776,8226
10730545,1593586673.778,8227
10730546,1593586673.78,8228
10730547,1593586673.782,8230
10730548,1593586673.784,8231
10730549,1593586673.786,8233
10730550,1593586673.788,8234
10730551,1593586673.79,8235
10730552,1593586673.792,8235
10730553,1593586673.794,8236
10730554,1593586673.796,8236
10730555,1593586673.798,8237
10730556,1593586673.8,8237
10730557,1593586673.802,8238
10730558,1593586673.804,8238
10730559,1593586673.806,8239
10730560,1593586673.808,8239
10730561,1593586673.81,8239
10730562,1593586673.812,8238
10730563,1593586673.814,8237
10730564,1593586673.816,8237
10730565,1593586673.818,8236
10730566,1593586673.82,8236
10730567,1593586673.822,8235
10730568,1593586673.824,8234
10730569,1593586673.826,8233
10730570,1593586673.828,8232
10730571,1593586673.83,8231
10730572,1593586673.832,8229
10730573,1593586673.834,8228
10730574,1593586673.836,8227
10730575,1593586673.838,8226
10730576,1593586673.84,8225
10730577,1593586673.842,8225
10730578,1593586673.844,8224
10730579,1593586673.846,8223
10730580,1593586673.848,8222
10730581,1593586673.85,8220
10730582,1593586673.852,8220
10730583,1593586673.854,8220
10730584,1593586673.856,8222
10730585,1593586673.858,8223
10730586,1593586673.86,8225
10730587,1593586673.862,8226
10730588,1593586673.864,8228
10730589,1593586673.866,8229
10730590,1593586673.868,8230
10730591,1593586673.87,8231
10730592,1593586673.872,8231
10730593,1593586673.874,8230
10730594,1593586673.876,8229
10730595,1593586673.878,8227
10730596,1593586673.88,8225
10730597,1593586673.882,8223
10730598,1593586673.884,8222
10730599,1593586673.886,8223
10730600,1593586673.888,8224
10730601,1593586673.89,8225
10730602,1593586673.892,8224
10730603,1593586673.894,8222
10730604,1593586673.896,8218
10730605,1593586673.898,8214
10730606,1593586673.9,8210
10730607,1593586673.902,8206
10730608,1593586673.904,8202
10730609,1593586673.906,8197
10730610,1593586673.908,8192
10730611,1593586673.91,8188
10730612,1593586673.912,8184
10730613,1593586673.914,8183
10730614,1593586673.916,8182
10730615,1593586673.918,8182
10730616,1593586673.92,8182
10730617,1593586673.922,8181
10730618,1593586673.924,8181
10730619,1593586673.926,8181
10730620,1593586673.928,8181
10730621,1593586673.93,8181
10730622,1593586673.932,8181
10730623,1593586673.934,8182
10730624,1593586673.936,8182
10730625,1593586673.938,8182
10730626,1593586673.94,8182
10730627,1593586673.942,8182
10730628,1593586673.944,8182
10730629,1593586673.946,8182
10730630,1593586673.948,8181
10730631,1593586673.95,8181
10730632,1593586673.952,8181
10730633,1593586673.954,8181
10730634,1593586673.956,8182
10730635,1593586673.958,8182
10730636,1593586673.96,8183
10730637,1593586673.962,8183
10730638,1593586673.964,8183
10730639,1593586673.966,8183
10730640,1593586673.968,8183
10730641,1593586673.97,8183
10730642,1593586673.972,8183
10730643,1593586673.974,8183
10730644,1593586673.976,8184
10730645,1593586673.978,8184
10730646,1593586673.98,8184
10730647,1593586673.982,8183
10730648,1593586673.984,8183
10730649,1593586673.986,8184
10730650,1593586673.988,8184
10730651,1593586673.99,8184
10730652,1593586673.992,8185
10730653,1593586673.994,8186
10730654,1593586673.996,8186
10730655,1593586673.998,8186
10730656,1593586674.0,8186
10730657,1593586674.002,8186
10730658,1593586674.004,8187
10730659,1593586674.006,8187
10730660,1593586674.008,8188
10730661,1593586674.01,8190
10730662,1593586674.012,8195
10730663,1593586674.014,8202
10730664,1593586674.016,8213
10730665,1593586674.018,8230
10730666,1593586674.02,8253
10730667,1593586674.022,8280
10730668,1593586674.024,8309
10730669,1593586674.026,8337
10730670,1593586674.028,8363
10730671,1593586674.03,8383
10730672,1593586674.032,8396
10730673,1593586674.034,8398
10730674,1593586674.036,8389
10730675,1593586674.038,8366
10730676,1593586674.04,8330
10730677,1593586674.042,8286
10730678,1593586674.044,8238
10730679,1593586674.046,8190
10730680,1593586674.048,8147
10730681,1593586674.05,8112
10730682,1593586674.052,8087
10730683,1593586674.054,8069
10730684,1593586674.056,8052
10730685,1593586674.058,8025
10730686,1593586674.06,7987
10730687,1593586674.062,7942
10730688,1593586674.064,7898
10730689,1593586674.066,7861
10730690,1593586674.068,7838
10730691,1593586674.07,7834
10730692,1593586674.072,7846
10730693,1593586674.074,7870
10730694,1593586674.076,7901
10730695,1593586674.078,7937
10730696,1593586674.08,7977
10730697,1593586674.082,8021
10730698,1593586674.084,8064
10730699,1593586674.086,8103
10730700,1593586674.088,8134
10730701,1593586674.09,8155
10730702,1593586674.092,8167
10730703,1593586674.094,8173
10730704,1593586674.096,8177
10730705,1593586674.098,8179
10730706,1593586674.1,8180
10730707,1593586674.102,8180
10730708,1593586674.104,8181
10730709,1593586674.106,8181
10730710,1593586674.108,8182
10730711,1593586674.11,8182
10730712,1593586674.112,8181
10730713,1593586674.114,8181
10730714,1593586674.116,8180
10730715,1593586674.118,8180
10730716,1593586674.12,8180
10730717,1593586674.122,8180
10730718,1593586674.124,8180
10730719,1593586674.126,8180
10730720,1593586674.128,8180
10730721,1593586674.13,8180
10730722,1593586674.132,8180
10730723,1593586674.134,8180
10730724,1593586674.136,8180
10730725,1593586674.138,8180
10730726,1593586674.14,8179
10730727,1593586674.142,8179
10730728,1593586674.144,8178
10730729,1593586674.146,8178
10730730,1593586674.148,8177
10730731,1593586674.15,8177
10730732,1593586674.152,8176
10730733,1593586674.154,8177
10730734,1593586674.156,8177
10730735,1593586674.158,8177
10730736,1593586674.16,8177
10730737,1593586674.162,8177
10730738,1593586674.164,8176
10730739,1593586674.166,8175
10730740,1593586674.168,8175
10730741,1593586674.17,8175
10730742,1593586674.172,8176
10730743,1593586674.174,8176
10730744,1593586674.176,8176
10730745,1593586674.178,8176
10730746,1593586674.18,8175
10730747,1593586674.182,8174
10730748,1593586674.184,8174
10730749,1593586674.186,8175
10730750,1593586674.188,8175
10730751,1593586674.19,8175
10730752,1593586674.192,8175
10730753,1593586674.194,8174
10730754,1593586674.196,8173
10730755,1593586674.198,8173
10730756,1593586674.2,8173
10730757,1593586674.202,8173
10730758,1593586674.204,8173
10730759,1593586674.206,8174
10730760,1593586674.208,8174
10730761,1593586674.21,8174
10730762,1593586674.212,8173
10730763,1593586674.214,8172
10730764,1593586674.216,8171
10730765,1593586674.218,8171
10730766,1593586674.22,8171
10730767,1593586674.222,8171
10730768,1593586674.224,8171
10730769,1593586674.226,8171
10730770,1593586674.228,8171
10730771,1593586674.23,8171
10730772,1593586674.232,8171
10730773,1593586674.234,8171
10730774,1593586674.236,8171
10730775,1593586674.238,8172
10730776,1593586674.24,8172
10730777,1593586674.242,8171
10730778,1593586674.244,8171
10730779,1593586674.246,8170
10730780,1593586674.248,8170
10730781,1593586674.25,8170
10730782,1593586674.252,8170
10730783,1593586674.254,8170
10730784,1593586674.256,8170
10730785,1593586674.258,8170
10730786,1593586674.26,8170
10730787,1593586674.262,8170
10730788,1593586674.264,8170
10730789,1593586674.266,8170
10730790,1593586674.268,8170
10730791,1593586674.27,8171
10730792,1593586674.272,8171
10730793,1593586674.274,8171
10730794,1593586674.276,8171
10730795,1593586674.278,8171
10730796,1593586674.28,8171
10730797,1593586674.282,8170
10730798,1593586674.284,8171
10730799,1593586674.286,8171
10730800,1593586674.288,8172
10730801,1593586674.29,8172
10730802,1593586674.292,8173
10730803,1593586674.294,8174
10730804,1593586674.296,8174
10730805,1593586674.298,8175
10730806,1593586674.3,8175
10730807,1593586674.302,8176
10730808,1593586674.304,8177
10730809,1593586674.306,8178
10730810,1593586674.308,8179
10730811,1593586674.31,8179
10730812,1593586674.312,8180
10730813,1593586674.314,8180
10730814,1593586674.316,8181
10730815,1593586674.318,8182
10730816,1593586674.32,8183
10730817,1593586674.322,8184
10730818,1593586674.324,8186
10730819,1593586674.326,8187
10730820,1593586674.328,8188
10730821,1593586674.33,8189
10730822,1593586674.332,8190
10730823,1593586674.334,8192
10730824,1593586674.336,8194
10730825,1593586674.338,8195
10730826,1593586674.34,8196
10730827,1593586674.342,8198
10730828,1593586674.344,8199
10730829,1593586674.346,8200
10730830,1593586674.348,8201
10730831,1593586674.35,8202
10730832,1593586674.352,8203
10730833,1593586674.354,8204
10730834,1593586674.356,8206
10730835,1593586674.358,8208
10730836,1593586674.36,8210
10730837,1593586674.362,8212
10730838,1593586674.364,8213
10730839,1593586674.366,8215
10730840,1593586674.368,8216
10730841,1593586674.37,8218
10730842,1593586674.372,8219
10730843,1593586674.374,8221
10730844,1593586674.376,8223
10730845,1593586674.378,8224
10730846,1593586674.38,8225
10730847,1593586674.382,8226
10730848,1593586674.384,8227
10730849,1593586674.386,8229
10730850,1593586674.388,8231
10730851,1593586674.39,8232
10730852,1593586674.392,8233
10730853,1593586674.394,8234
10730854,1593586674.396,8235
10730855,1593586674.398,8235
10730856,1593586674.4,8235
10730857,1593586674.402,8236
10730858,1593586674.404,8237
10730859,1593586674.406,8237
10730860,1593586674.408,8237
10730861,1593586674.41,8237
10730862,1593586674.412,8236
10730863,1593586674.414,8236
10730864,1593586674.416,8235
10730865,1593586674.418,8235
10730866,1593586674.42,8234
10730867,1593586674.422,8234
10730868,1593586674.424,8233
10730869,1593586674.426,8233
10730870,1593586674.428,8231
10730871,1593586674.43,8230
10730872,1593586674.432,8228
10730873,1593586674.434,8227
10730874,1593586674.436,8226
10730875,1593586674.438,8225
10730876,1593586674.44,8224
10730877,1593586674.442,8223
10730878,1593586674.444,8223
10730879,1593586674.446,8222
10730880,1593586674.448,8221
10730881,1593586674.45,8219
10730882,1593586674.452,8218
10730883,1593586674.454,8218
10730884,1593586674.456,8218
10730885,1593586674.458,8219
10730886,1593586674.46,8220
10730887,1593586674.462,8221
10730888,1593586674.464,8222
10730889,1593586674.466,8224
10730890,1593586674.468,8226
10730891,1593586674.47,8227
10730892,1593586674.472,8227
10730893,1593586674.474,8227
10730894,1593586674.476,8225
10730895,1593586674.478,8224
10730896,1593586674.48,8222
10730897,1593586674.482,8221
10730898,1593586674.484,8221
10730899,1593586674.486,8221
10730900,1593586674.488,8221
10730901,1593586674.49,8222
10730902,1593586674.492,8223
10730903,1593586674.494,8223
10730904,1593586674.496,8221
10730905,1593586674.498,8218
10730906,1593586674.5,8214
10730907,1593586674.502,8211
10730908,1593586674.504,8207
10730909,1593586674.506,8203
10730910,1593586674.508,8199
10730911,1593586674.51,8194
10730912,1593586674.512,8189
10730913,1593586674.514,8186
10730914,1593586674.516,8184
10730915,1593586674.518,8183
10730916,1593586674.52,8183
10730917,1593586674.522,8183
10730918,1593586674.524,8183
10730919,1593586674.526,8183
10730920,1593586674.528,8183
10730921,1593586674.53,8182
10730922,1593586674.532,8181
10730923,1593586674.534,8181
10730924,1593586674.536,8182
10730925,1593586674.538,8183
10730926,1593586674.54,8184
10730927,1593586674.542,8184
10730928,1593586674.544,8183
10730929,1593586674.546,8183
10730930,1593586674.548,8183
10730931,1593586674.55,8183
10730932,1593586674.552,8182
10730933,1593586674.554,8182
10730934,1593586674.556,8183
10730935,1593586674.558,8183
10730936,1593586674.56,8184
10730937,1593586674.562,8184
10730938,1593586674.564,8185
10730939,1593586674.566,8185
10730940,1593586674.568,8186
10730941,1593586674.57,8187
10730942,1593586674.572,8187
10730943,1593586674.574,8188
10730944,1593586674.576,8187
10730945,1593586674.578,8187
10730946,1593586674.58,8187
10730947,1593586674.582,8187
10730948,1593586674.584,8187
10730949,1593586674.586,8187
10730950,1593586674.588,8188
10730951,1593586674.59,8188
10730952,1593586674.592,8189
10730953,1593586674.594,8189
10730954,1593586674.596,8188
10730955,1593586674.598,8188
10730956,1593586674.6,8188
10730957,1593586674.602,8188
10730958,1593586674.604,8188
10730959,1593586674.606,8189
10730960,1593586674.608,8189
10730961,1593586674.61,8190
10730962,1593586674.612,8191
10730963,1593586674.614,8194
10730964,1593586674.616,8199
10730965,1593586674.618,8208
10730966,1593586674.62,8223
10730967,1593586674.622,8244
10730968,1593586674.624,8269
10730969,1593586674.626,8298
10730970,1593586674.628,8328
10730971,1593586674.63,8357
10730972,1593586674.632,8382
10730973,1593586674.634,8398
10730974,1593586674.636,8404
10730975,1593586674.638,8399
10730976,1593586674.64,8382
10730977,1593586674.642,8350
10730978,1593586674.644,8308
10730979,1593586674.646,8261
10730980,1593586674.648,8213
10730981,1593586674.65,8167
10730982,1593586674.652,8128
10730983,1593586674.654,8098
10730984,1593586674.656,8078
10730985,1593586674.658,8062
10730986,1593586674.66,8041
10730987,1593586674.662,8009
10730988,1593586674.664,7967
10730989,1593586674.666,7924
10730990,1593586674.668,7885
10730991,1593586674.67,7856
10730992,1593586674.672,7843
10730993,1593586674.674,7849
10730994,1593586674.676,7870
10730995,1593586674.678,7898
10730996,1593586674.68,7931
10730997,1593586674.682,7967
10730998,1593586674.684,8009
10730999,1593586674.686,8053
10731000,1593586674.688,8094
10731001,1593586674.69,8129
10731002,1593586674.692,8153
10731003,1593586674.694,8168
10731004,1593586674.696,8176
10731005,1593586674.698,8180
10731006,1593586674.7,8182
10731007,1593586674.702,8183
10731008,1593586674.704,8184
10731009,1593586674.706,8184
10731010,1593586674.708,8185
10731011,1593586674.71,8185
10731012,1593586674.712,8184
10731013,1593586674.714,8184
10731014,1593586674.716,8183
10731015,1593586674.718,8183
10731016,1593586674.72,8183
10731017,1593586674.722,8183
10731018,1593586674.724,8184
10731019,1593586674.726,8184
10731020,1593586674.728,8183
10731021,1593586674.73,8183
10731022,1593586674.732,8182
10731023,1593586674.734,8182
10731024,1593586674.736,8182
10731025,1593586674.738,8182
10731026,1593586674.74,8182
10731027,1593586674.742,8182
10731028,1593586674.744,8181
10731029,1593586674.746,8181
10731030,1593586674.748,8180
10731031,1593586674.75,8180
10731032,1593586674.752,8180
10731033,1593586674.754,8180
10731034,1593586674.756,8180
10731035,1593586674.758,8181
10731036,1593586674.76,8181
10731037,1593586674.762,8180
10731038,1593586674.764,8180
10731039,1593586674.766,8180
10731040,1593586674.768,8180
10731041,1593586674.77,8180
10731042,1593586674.772,8180
10731043,1593586674.774,8180
10731044,1593586674.776,8180
10731045,1593586674.778,8179
10731046,1593586674.78,8179
10731047,1593586674.782,8178
10731048,1593586674.784,8178
10731049,1593586674.786,8178
10731050,1593586674.788,8178
10731051,1593586674.79,8178
10731052,1593586674.792,8178
10731053,1593586674.794,8178
10731054,1593586674.796,8177
10731055,1593586674.798,8177
10731056,1593586674.8,8177
10731057,1593586674.802,8177
10731058,1593586674.804,8176
10731059,1593586674.806,8176
10731060,1593586674.808,8176
10731061,1593586674.81,8176
10731062,1593586674.812,8175
10731063,1593586674.814,8175
10731064,1593586674.816,8175
10731065,1593586674.818,8174
10731066,1593586674.82,8174
10731067,1593586674.822,8174
10731068,1593586674.824,8174
10731069,1593586674.826,8174
10731070,1593586674.828,8174
10731071,1593586674.83,8174
10731072,1593586674.832,8174
10731073,1593586674.834,8174
10731074,1593586674.836,8174
10731075,1593586674.838,8174
10731076,1593586674.84,8174
10731077,1593586674.842,8174
10731078,1593586674.844,8173
10731079,1593586674.846,8173
10731080,1593586674.848,8173
10731081,1593586674.85,8173
10731082,1593586674.852,8173
10731083,1593586674.854,8173
10731084,1593586674.856,8173
10731085,1593586674.858,8173
10731086,1593586674.86,8173
10731087,1593586674.862,8173
10731088,1593586674.864,8173
10731089,1593586674.866,8173
10731090,1593586674.868,8174
10731091,1593586674.87,8174
10731092,1593586674.872,8174
10731093,1593586674.874,8174
10731094,1593586674.876,8174
10731095,1593586674.878,8174
10731096,1593586674.88,8174
10731097,1593586674.882,8174
10731098,1593586674.884,8175
10731099,1593586674.886,8175
10731100,1593586674.888,8176
10731101,1593586674.89,8176
10731102,1593586674.892,8177
10731103,1593586674.894,8177
10731104,1593586674.896,8178
10731105,1593586674.898,8178
10731106,1593586674.9,8179
10731107,1593586674.902,8179
10731108,1593586674.904,8180
10731109,1593586674.906,8181
10731110,1593586674.908,8181
10731111,1593586674.91,8182
10731112,1593586674.912,8182
10731113,1593586674.914,8182
10731114,1593586674.916,8183
10731115,1593586674.918,8184
10731116,1593586674.92,8185
10731117,1593586674.922,8187
10731118,1593586674.924,8188
10731119,1593586674.926,8188
10731120,1593586674.928,8189
10731121,1593586674.93,8190
10731122,1593586674.932,8192
10731123,1593586674.934,8193
10731124,1593586674.936,8195
10731125,1593586674.938,8196
10731126,1593586674.94,8197
10731127,1593586674.942,8198
10731128,1593586674.944,8199
10731129,1593586674.946,8199
10731130,1593586674.948,8200
10731131,1593586674.95,8202
10731132,1593586674.952,8204
10731133,1593586674.954,8206
10731134,1593586674.956,8208
10731135,1593586674.958,8210
10731136,1593586674.96,8211
10731137,1593586674.962,8213
10731138,1593586674.964,8213
10731139,1593586674.966,8215
10731140,1593586674.968,8216
10731141,1593586674.97,8218
10731142,1593586674.972,8220
10731143,1593586674.974,8221
10731144,1593586674.976,8223
10731145,1593586674.978,8224
10731146,1593586674.98,8225
10731147,1593586674.982,8226
10731148,1593586674.984,8228
10731149,1593586674.986,8229
10731150,1593586674.988,8230
10731151,1593586674.99,8232
10731152,1593586674.992,8233
10731153,1593586674.994,8234
10731154,1593586674.996,8236
10731155,1593586674.998,8236
10731156,1593586675.0,8237
10731157,1593586675.002,8237
10731158,1593586675.004,8238
10731159,1593586675.006,8238
10731160,1593586675.008,8238
10731161,1593586675.01,8238
10731162,1593586675.012,8238
10731163,1593586675.014,8238
10731164,1593586675.016,8237
10731165,1593586675.018,8237
10731166,1593586675.02,8237
10731167,1593586675.022,8236
10731168,1593586675.024,8236
10731169,1593586675.026,8235
10731170,1593586675.028,8235
10731171,1593586675.03,8234
10731172,1593586675.032,8232
10731173,1593586675.034,8231
10731174,1593586675.036,8229
10731175,1593586675.038,8228
10731176,1593586675.04,8227
10731177,1593586675.042,8226
10731178,1593586675.044,8225
10731179,1593586675.046,8223
10731180,1593586675.048,8223
10731181,1593586675.05,8222
10731182,1593586675.052,8221
10731183,1593586675.054,8221
10731184,1593586675.056,8220
10731185,1593586675.058,8219
10731186,1593586675.06,8220
10731187,1593586675.062,8220
10731188,1593586675.064,8221
10731189,1593586675.066,8222
10731190,1593586675.068,8223
10731191,1593586675.07,8224
10731192,1593586675.072,8226
10731193,1593586675.074,8228
10731194,1593586675.076,8229
10731195,1593586675.078,8229
10731196,1593586675.08,8229
10731197,1593586675.082,8227
10731198,1593586675.084,8226
10731199,1593586675.086,8225
10731200,1593586675.088,8223
10731201,1593586675.09,8223
10731202,1593586675.092,8223
10731203,1593586675.094,8223
10731204,1593586675.096,8224
10731205,1593586675.098,8225
10731206,1593586675.1,8225
10731207,1593586675.102,8222
10731208,1593586675.104,8218
10731209,1593586675.106,8213
10731210,1593586675.108,8209
10731211,1593586675.11,8204
10731212,1593586675.112,8199
10731213,1593586675.114,8194
10731214,1593586675.116,8189
10731215,1593586675.118,8186
10731216,1593586675.12,8184
10731217,1593586675.122,8183
10731218,1593586675.124,8183
10731219,1593586675.126,8183
10731220,1593586675.128,8182
10731221,1593586675.13,8181
10731222,1593586675.132,8181
10731223,1593586675.134,8182
10731224,1593586675.136,8182
10731225,1593586675.138,8182
10731226,1593586675.14,8183
10731227,1593586675.142,8183
10731228,1593586675.144,8182
10731229,1593586675.146,8182
10731230,1593586675.148,8182
10731231,1593586675.15,8182
10731232,1593586675.152,8182
10731233,1593586675.154,8183
10731234,1593586675.156,8183
10731235,1593586675.158,8183
10731236,1593586675.16,8182
10731237,1593586675.162,8182
10731238,1593586675.164,8181
10731239,1593586675.166,8182
10731240,1593586675.168,8183
10731241,1593586675.17,8183
10731242,1593586675.172,8184
10731243,1593586675.174,8184
10731244,1593586675.176,8183
10731245,1593586675.178,8182
10731246,1593586675.18,8182
10731247,1593586675.182,8182
10731248,1593586675.184,8182
10731249,1593586675.186,8182
10731250,1593586675.188,8182
10731251,1593586675.19,8183
10731252,1593586675.192,8183
10731253,1593586675.194,8183
10731254,1593586675.196,8184
10731255,1593586675.198,8184
10731256,1593586675.2,8184
10731257,1593586675.202,8184
10731258,1593586675.204,8184
10731259,1593586675.206,8185
10731260,1593586675.208,8185
10731261,1593586675.21,8185
10731262,1593586675.212,8185
10731263,1593586675.214,8185
10731264,1593586675.216,8187
10731265,1593586675.218,8191
10731266,1593586675.22,8197
10731267,1593586675.222,8206
10731268,1593586675.224,8219
10731269,1593586675.226,8238
10731270,1593586675.228,8261
10731271,1593586675.23,8288
10731272,1593586675.232,8317
10731273,1593586675.234,8346
10731274,1593586675.236,8372
10731275,1593586675.238,8390
10731276,1593586675.24,8397
10731277,1593586675.242,8392
10731278,1593586675.244,8375
10731279,1593586675.246,8346
10731280,1593586675.248,8308
10731281,1593586675.25,8264
10731282,1593586675.252,8218
10731283,1593586675.254,8173
10731284,1593586675.256,8132
10731285,1593586675.258,8100
10731286,1593586675.26,8078
10731287,1593586675.262,8061
10731288,1593586675.264,8038
10731289,1593586675.266,8006
10731290,1593586675.268,7967
10731291,1593586675.27,7927
10731292,1593586675.272,7889
10731293,1593586675.274,7859
10731294,1593586675.276,7843
10731295,1593586675.278,7845
10731296,1593586675.28,7862
10731297,1593586675.282,7890
10731298,1593586675.284,7925
10731299,1593586675.286,7964
10731300,1593586675.288,8007
10731301,1593586675.29,8049
10731302,1593586675.292,8088
10731303,1593586675.294,8121
10731304,1593586675.296,8146
10731305,1593586675.298,8162
10731306,1593586675.3,8172
10731307,1593586675.302,8177
10731308,1593586675.304,8180
10731309,1593586675.306,8182
10731310,1593586675.308,8183
10731311,1593586675.31,8183
10731312,1593586675.312,8183
10731313,1593586675.314,8182
10731314,1593586675.316,8182
10731315,1593586675.318,8181
10731316,1593586675.32,8182
10731317,1593586675.322,8182
10731318,1593586675.324,8182
10731319,1593586675.326,8182
10731320,1593586675.328,8181
10731321,1593586675.33,8181
10731322,1593586675.332,8181
10731323,1593586675.334,8181
10731324,1593586675.336,8181
10731325,1593586675.338,8181
10731326,1593586675.34,8181
10731327,1593586675.342,8181
10731328,1593586675.344,8181
10731329,1593586675.346,8180
10731330,1593586675.348,8179
10731331,1593586675.35,8179
10731332,1593586675.352,8178
10731333,1593586675.354,8179
10731334,1593586675.356,8178
10731335,1593586675.358,8178
10731336,1593586675.36,8177
10731337,1593586675.362,8177
10731338,1593586675.364,8177
10731339,1593586675.366,8177
10731340,1593586675.368,8177
10731341,1593586675.37,8177
10731342,1593586675.372,8178
10731343,1593586675.374,8177
10731344,1593586675.376,8177
10731345,1593586675.378,8176
10731346,1593586675.38,8175
10731347,1593586675.382,8175
10731348,1593586675.384,8175
10731349,1593586675.386,8175
10731350,1593586675.388,8175
10731351,1593586675.39,8175
10731352,1593586675.392,8175
10731353,1593586675.394,8175
10731354,1593586675.396,8174
10731355,1593586675.398,8173
10731356,1593586675.4,8173
10731357,1593586675.402,8173
10731358,1593586675.404,8173
10731359,1593586675.406,8174
10731360,1593586675.408,8174
10731361,1593586675.41,8174
10731362,1593586675.412,8173
10731363,1593586675.414,8173
10731364,1593586675.416,8173
10731365,1593586675.418,8172
10731366,1593586675.42,8172
10731367,1593586675.422,8173
10731368,1593586675.424,8173
10731369,1593586675.426,8173
10731370,1593586675.428,8172
10731371,1593586675.43,8171
10731372,1593586675.432,8171
10731373,1593586675.434,8170
10731374,1593586675.436,8171
10731375,1593586675.438,8171
10731376,1593586675.44,8171
10731377,1593586675.442,8171
10731378,1593586675.444,8171
10731379,1593586675.446,8170
10731380,1593586675.448,8170
10731381,1593586675.45,8170
10731382,1593586675.452,8170
10731383,1593586675.454,8171
10731384,1593586675.456,8171
10731385,1593586675.458,8172
10731386,1593586675.46,8172
10731387,1593586675.462,8171
10731388,1593586675.464,8171
10731389,1593586675.466,8171
10731390,1593586675.468,8171
10731391,1593586675.47,8172
10731392,1593586675.472,8172
10731393,1593586675.474,8172
10731394,1593586675.476,8172
10731395,1593586675.478,8172
10731396,1593586675.48,8172
10731397,1593586675.482,8172
10731398,1593586675.484,8172
10731399,1593586675.486,8173
10731400,1593586675.488,8174
10731401,1593586675.49,8175
10731402,1593586675.492,8175
10731403,1593586675.494,8175
10731404,1593586675.496,8175
10731405,1593586675.498,8175
10731406,1593586675.5,8176
10731407,1593586675.502,8177
10731408,1593586675.504,8177
10731409,1593586675.506,8178
10731410,1593586675.508,8178
10731411,1593586675.51,8179
10731412,1593586675.512,8179
10731413,1593586675.514,8179
10731414,1593586675.516,8180
10731415,1593586675.518,8180
10731416,1593586675.52,8181
10731417,1593586675.522,8182
10731418,1593586675.524,8183
10731419,1593586675.526,8184
10731420,1593586675.528,8185
10731421,1593586675.53,8186
10731422,1593586675.532,8187
10731423,1593586675.534,8188
10731424,1593586675.536,8189
10731425,1593586675.538,8190
10731426,1593586675.54,8191
10731427,1593586675.542,8193
10731428,1593586675.544,8194
10731429,1593586675.546,8195
10731430,1593586675.548,8196
10731431,1593586675.55,8197
10731432,1593586675.552,8199
10731433,1593586675.554,8200
10731434,1593586675.556,8202
10731435,1593586675.558,8204
10731436,1593586675.56,8206
10731437,1593586675.562,8207
10731438,1593586675.564,8208
10731439,1593586675.566,8210
10731440,1593586675.568,8212
10731441,1593586675.57,8213
10731442,1593586675.572,8215
10731443,1593586675.574,8217
10731444,1593586675.576,8218
10731445,1593586675.578,8220
10731446,1593586675.58,8221
10731447,1593586675.582,8223
10731448,1593586675.584,8224
10731449,1593586675.586,8226
10731450,1593586675.588,8228
10731451,1593586675.59,8229
10731452,1593586675.592,8231
10731453,1593586675.594,8232
10731454,1593586675.596,8233
10731455,1593586675.598,8235
10731456,1593586675.6,8236
10731457,1593586675.602,8237
10731458,1593586675.604,8237
10731459,1593586675.606,8238
10731460,1593586675.608,8239
10731461,1593586675.61,8239
10731462,1593586675.612,8239
10731463,1593586675.614,8239
10731464,1593586675.616,8239
10731465,1593586675.618,8239
10731466,1593586675.62,8239
10731467,1593586675.622,8239
10731468,1593586675.624,8239
10731469,1593586675.626,8238
10731470,1593586675.628,8237
10731471,1593586675.63,8236
10731472,1593586675.632,8235
10731473,1593586675.634,8234
10731474,1593586675.636,8233
10731475,1593586675.638,8232
10731476,1593586675.64,8231
10731477,1593586675.642,8229
10731478,1593586675.644,8227
10731479,1593586675.646,8226
10731480,1593586675.648,8225
10731481,1593586675.65,8224
10731482,1593586675.652,8224
10731483,1593586675.654,8224
10731484,1593586675.656,8224
10731485,1593586675.658,8223
10731486,1593586675.66,8222
10731487,1593586675.662,8221
10731488,1593586675.664,8220
10731489,1593586675.666,8221
10731490,1593586675.668,8222
10731491,1593586675.67,8223
10731492,1593586675.672,8224
10731493,1593586675.674,8225
10731494,1593586675.676,8226
10731495,1593586675.678,8228
10731496,1593586675.68,8229
10731497,1593586675.682,8231
10731498,1593586675.684,8232
10731499,1593586675.686,8232
10731500,1593586675.688,8232
10731501,1593586675.69,8231
10731502,1593586675.692,8230
10731503,1593586675.694,8228
10731504,1593586675.696,8227
10731505,1593586675.698,8226
10731506,1593586675.7,8226
10731507,1593586675.702,8227
10731508,1593586675.704,8227
10731509,1593586675.706,8227
10731510,1593586675.708,8224
10731511,1593586675.71,8221
10731512,1593586675.712,8217
10731513,1593586675.714,8213
10731514,1593586675.716,8208
10731515,1593586675.718,8203
10731516,1593586675.72,8198
10731517,1593586675.722,8194
10731518,1593586675.724,8191
10731519,1593586675.726,8189
10731520,1593586675.728,8188
10731521,1593586675.73,8188
10731522,1593586675.732,8188
10731523,1593586675.734,8187
10731524,1593586675.736,8187
10731525,1593586675.738,8187
10731526,1593586675.74,8187
10731527,1593586675.742,8187
10731528,1593586675.744,8187
10731529,1593586675.746,8186
10731530,1593586675.748,8186
10731531,1593586675.75,8186
10731532,1593586675.752,8186
10731533,1593586675.754,8186
10731534,1593586675.756,8186
10731535,1593586675.758,8187
10731536,1593586675.76,8187
10731537,1593586675.762,8187
10731538,1593586675.764,8187
10731539,1593586675.766,8187
10731540,1593586675.768,8187
10731541,1593586675.77,8187
10731542,1593586675.772,8187
10731543,1593586675.774,8187
10731544,1593586675.776,8187
10731545,1593586675.778,8187
10731546,1593586675.78,8187
10731547,1593586675.782,8187
10731548,1593586675.784,8187
10731549,1593586675.786,8188
10731550,1593586675.788,8189
10731551,1593586675.79,8189
10731552,1593586675.792,8189
10731553,1593586675.794,8189
10731554,1593586675.796,8188
10731555,1593586675.798,8188
10731556,1593586675.8,8189
10731557,1593586675.802,8189
10731558,1593586675.804,8189
10731559,1593586675.806,8190
10731560,1593586675.808,8190
10731561,1593586675.81,8190
10731562,1593586675.812,8189
10731563,1593586675.814,8189
10731564,1593586675.816,8190
10731565,1593586675.818,8190
10731566,1593586675.82,8191
10731567,1593586675.822,8194
10731568,1593586675.824,8198
10731569,1593586675.826,8205
10731570,1593586675.828,8214
10731571,1593586675.83,8229
10731572,1593586675.832,8247
10731573,1593586675.834,8271
10731574,1593586675.836,8297
10731575,1593586675.838,8327
10731576,1593586675.84,8356
10731577,1593586675.842,8382
10731578,1593586675.844,8400
10731579,1593586675.846,8406
10731580,1593586675.848,8401
10731581,1593586675.85,8383
10731582,1593586675.852,8351
10731583,1593586675.854,8312
10731584,1593586675.856,8268
10731585,1593586675.858,8221
10731586,1593586675.86,8176
10731587,1593586675.862,8135
10731588,1593586675.864,8103
10731589,1593586675.866,8081
10731590,1593586675.868,8064
10731591,1593586675.87,8041
10731592,1593586675.872,8008
10731593,1593586675.874,7969
10731594,1593586675.876,7930
10731595,1593586675.878,7894
10731596,1593586675.88,7865
10731597,1593586675.882,7850
10731598,1593586675.884,7852
10731599,1593586675.886,7870
10731600,1593586675.888,7898
10731601,1593586675.89,7932
10731602,1593586675.892,7971
10731603,1593586675.894,8015
10731604,1593586675.896,8059
10731605,1593586675.898,8098
10731606,1593586675.9,8130
10731607,1593586675.902,8153
10731608,1593586675.904,8168
10731609,1593586675.906,8177
10731610,1593586675.908,8183
10731611,1593586675.91,8186
10731612,1593586675.912,8187
10731613,1593586675.914,8188
10731614,1593586675.916,8188
10731615,1593586675.918,8188
10731616,1593586675.92,8188
10731617,1593586675.922,8188
10731618,1593586675.924,8189
10731619,1593586675.926,8189
10731620,1593586675.928,8188
10731621,1593586675.93,8188
10731622,1593586675.932,8188
10731623,1593586675.934,8188
10731624,1593586675.936,8188
10731625,1593586675.938,8188
10731626,1593586675.94,8188
10731627,1593586675.942,8187
10731628,1593586675.944,8186
10731629,1593586675.946,8186
10731630,1593586675.948,8185
10731631,1593586675.95,8184
10731632,1593586675.952,8184
10731633,1593586675.954,8184
10731634,1593586675.956,8184
10731635,1593586675.958,8184
10731636,1593586675.96,8185
10731637,1593586675.962,8185
10731638,1593586675.964,8185
10731639,1593586675.966,8184
10731640,1593586675.968,8184
10731641,1593586675.97,8184
10731642,1593586675.972,8184
10731643,1593586675.974,8184
10731644,1593586675.976,8183
10731645,1593586675.978,8182
10731646,1593586675.98,8181
10731647,1593586675.982,8181
10731648,1593586675.984,8181
10731649,1593586675.986,8181
10731650,1593586675.988,8181
10731651,1593586675.99,8181
10731652,1593586675.992,8181
10731653,1593586675.994,8180
10731654,1593586675.996,8179
10731655,1593586675.998,8179
10731656,1593586676.0,8179
10731657,1593586676.002,8179
10731658,1593586676.004,8179
10731659,1593586676.006,8178
10731660,1593586676.008,8178
10731661,1593586676.01,8177
10731662,1593586676.012,8177
10731663,1593586676.014,8176
10731664,1593586676.016,8176
10731665,1593586676.018,8176
10731666,1593586676.02,8176
10731667,1593586676.022,8176
10731668,1593586676.024,8176
10731669,1593586676.026,8176
10731670,1593586676.028,8176
10731671,1593586676.03,8175
10731672,1593586676.032,8175
10731673,1593586676.034,8175
10731674,1593586676.036,8175
10731675,1593586676.038,8175
10731676,1593586676.04,8175
10731677,1593586676.042,8175
10731678,1593586676.044,8174
10731679,1593586676.046,8173
10731680,1593586676.048,8173
10731681,1593586676.05,8173
10731682,1593586676.052,8173
10731683,1593586676.054,8174
10731684,1593586676.056,8174
10731685,1593586676.058,8174
10731686,1593586676.06,8174
10731687,1593586676.062,8174
10731688,1593586676.064,8174
10731689,1593586676.066,8174
10731690,1593586676.068,8175
10731691,1593586676.07,8176
10731692,1593586676.072,8176
10731693,1593586676.074,8176
10731694,1593586676.076,8176
10731695,1593586676.078,8176
10731696,1593586676.08,8176
10731697,1593586676.082,8176
10731698,1593586676.084,8177
10731699,1593586676.086,8178
10731700,1593586676.088,8179
10731701,1593586676.09,8179
10731702,1593586676.092,8179
10731703,1593586676.094,8179
10731704,1593586676.096,8178
10731705,1593586676.098,8178
10731706,1593586676.1,8178
10731707,1593586676.102,8179
10731708,1593586676.104,8179
10731709,1593586676.106,8180
10731710,1593586676.108,8180
10731711,1593586676.11,8180
10731712,1593586676.112,8181
10731713,1593586676.114,8181
10731714,1593586676.116,8182
10731715,1593586676.118,8182
10731716,1593586676.12,8183
10731717,1593586676.122,8184
10731718,1593586676.124,8185
10731719,1593586676.126,8185
10731720,1593586676.128,8186
10731721,1593586676.13,8187
10731722,1593586676.132,8187
10731723,1593586676.134,8188
10731724,1593586676.136,8189
10731725,1593586676.138,8190
10731726,1593586676.14,8191
10731727,1593586676.142,8192
10731728,1593586676.144,8193
10731729,1593586676.146,8193
10731730,1593586676.148,8194
10731731,1593586676.15,8196
10731732,1593586676.152,8197
10731733,1593586676.154,8199
10731734,1593586676.156,8200
10731735,1593586676.158,8202
10731736,1593586676.16,8203
10731737,1593586676.162,8205
10731738,1593586676.164,8206
10731739,1593586676.166,8208
10731740,1593586676.168,8209
10731741,1593586676.17,8211
10731742,1593586676.172,8213
10731743,1593586676.174,8214
10731744,1593586676.176,8215
10731745,1593586676.178,8216
10731746,1593586676.18,8218
10731747,1593586676.182,8219
10731748,1593586676.184,8220
10731749,1593586676.186,8222
10731750,1593586676.188,8224
10731751,1593586676.19,8226
10731752,1593586676.192,8228
10731753,1593586676.194,8230
10731754,1593586676.196,8231
10731755,1593586676.198,8232
10731756,1593586676.2,8233
10731757,1593586676.202,8234
10731758,1593586676.204,8235
10731759,1593586676.206,8237
10731760,1593586676.208,8238
10731761,1593586676.21,8239
10731762,1593586676.212,8240
10731763,1593586676.214,8241
10731764,1593586676.216,8241
10731765,1593586676.218,8241
10731766,1593586676.22,8242
10731767,1593586676.222,8242
10731768,1593586676.224,8242
10731769,1593586676.226,8242
10731770,1593586676.228,8242
10731771,1593586676.23,8241
10731772,1593586676.232,8241
10731773,1593586676.234,8240
10731774,1593586676.236,8239
10731775,1593586676.238,8238
10731776,1593586676.24,8237
10731777,1593586676.242,8236
10731778,1593586676.244,8234
10731779,1593586676.246,8233
10731780,1593586676.248,8232
10731781,1593586676.25,8231
10731782,1593586676.252,8230
10731783,1593586676.254,8228
10731784,1593586676.256,8227
10731785,1593586676.258,8226
10731786,1593586676.26,8225
10731787,1593586676.262,8225
10731788,1593586676.264,8224
10731789,1593586676.266,8224
10731790,1593586676.268,8223
10731791,1593586676.27,8222
10731792,1593586676.272,8222
10731793,1593586676.274,8222
10731794,1593586676.276,8222
10731795,1593586676.278,8222
10731796,1593586676.28,8221
10731797,1593586676.282,8221
10731798,1593586676.284,8222
10731799,1593586676.286,8224
10731800,1593586676.288,8228
10731801,1593586676.29,8231
10731802,1593586676.292,8232
10731803,1593586676.294,8233
10731804,1593586676.296,8232
10731805,1593586676.298,8231
10731806,1593586676.3,8230
10731807,1593586676.302,8228
10731808,1593586676.304,8227
10731809,1593586676.306,8226
10731810,1593586676.308,8226
10731811,1593586676.31,8226
10731812,1593586676.312,8226
10731813,1593586676.314,8224
10731814,1593586676.316,8222
10731815,1593586676.318,8219
10731816,1593586676.32,8216
10731817,1593586676.322,8213
10731818,1593586676.324,8209
10731819,1593586676.326,8205
10731820,1593586676.328,8201
10731821,1593586676.33,8196
10731822,1593586676.332,8192
10731823,1593586676.334,8190
10731824,1593586676.336,8189
10731825,1593586676.338,8189
10731826,1593586676.34,8189
10731827,1593586676.342,8188
10731828,1593586676.344,8187
10731829,1593586676.346,8187
10731830,1593586676.348,8187
10731831,1593586676.35,8187
10731832,1593586676.352,8188
10731833,1593586676.354,8188
10731834,1593586676.356,8188
10731835,1593586676.358,8188
10731836,1593586676.36,8188
10731837,1593586676.362,8188
10731838,1593586676.364,8188
10731839,1593586676.366,8188
10731840,1593586676.368,8188
10731841,1593586676.37,8188
10731842,1593586676.372,8188
10731843,1593586676.374,8188
10731844,1593586676.376,8188
10731845,1593586676.378,8187
10731846,1593586676.38,8188
10731847,1593586676.382,8188
10731848,1593586676.384,8188
10731849,1593586676.386,8188
10731850,1593586676.388,8189
10731851,1593586676.39,8190
10731852,1593586676.392,8190
10731853,1593586676.394,8190
10731854,1593586676.396,8189
10731855,1593586676.398,8189
10731856,1593586676.4,8189
10731857,1593586676.402,8189
10731858,1593586676.404,8189
10731859,1593586676.406,8190
10731860,1593586676.408,8190
10731861,1593586676.41,8190
10731862,1593586676.412,8190
10731863,1593586676.414,8189
10731864,1593586676.416,8190
10731865,1593586676.418,8190
10731866,1593586676.42,8191
10731867,1593586676.422,8191
10731868,1593586676.424,8191
10731869,1593586676.426,8191
10731870,1593586676.428,8191
10731871,1593586676.43,8193
10731872,1593586676.432,8196
10731873,1593586676.434,8202
10731874,1593586676.436,8211
10731875,1593586676.438,8224
10731876,1593586676.44,8243
10731877,1593586676.442,8266
10731878,1593586676.444,8290
10731879,1593586676.446,8318
10731880,1593586676.448,8347
10731881,1593586676.45,8374
10731882,1593586676.452,8395
10731883,1593586676.454,8405
10731884,1593586676.456,8405
10731885,1593586676.458,8391
10731886,1593586676.46,8363
10731887,1593586676.462,8323
10731888,1593586676.464,8279
10731889,1593586676.466,8234
10731890,1593586676.468,8189
10731891,1593586676.47,8147
10731892,1593586676.472,8113
10731893,1593586676.474,8089
10731894,1593586676.476,8071
10731895,1593586676.478,8050
10731896,1593586676.48,8019
10731897,1593586676.482,7980
10731898,1593586676.484,7938
10731899,1593586676.486,7901
10731900,1593586676.488,7870
10731901,1593586676.49,7851
10731902,1593586676.492,7849
10731903,1593586676.494,7862
10731904,1593586676.496,7888
10731905,1593586676.498,7920
10731906,1593586676.5,7958
10731907,1593586676.502,8000
10731908,1593586676.504,8045
10731909,1593586676.506,8088
10731910,1593586676.508,8123
10731911,1593586676.51,8149
10731912,1593586676.512,8165
10731913,1593586676.514,8175
10731914,1593586676.516,8181
10731915,1593586676.518,8184
10731916,1593586676.52,8186
10731917,1593586676.522,8187
10731918,1593586676.524,8187
10731919,1593586676.526,8187
10731920,1593586676.528,8187
10731921,1593586676.53,8187
10731922,1593586676.532,8187
10731923,1593586676.534,8187
10731924,1593586676.536,8187
10731925,1593586676.538,8187
10731926,1593586676.54,8187
10731927,1593586676.542,8186
10731928,1593586676.544,8185
10731929,1593586676.546,8184
10731930,1593586676.548,8184
10731931,1593586676.55,8184
10731932,1593586676.552,8183
10731933,1593586676.554,8183
10731934,1593586676.556,8183
10731935,1593586676.558,8183
10731936,1593586676.56,8183
10731937,1593586676.562,8183
10731938,1593586676.564,8183
10731939,1593586676.566,8183
10731940,1593586676.568,8183
10731941,1593586676.57,8183
10731942,1593586676.572,8183
10731943,1593586676.574,8182
10731944,1593586676.576,8182
10731945,1593586676.578,8182
10731946,1593586676.58,8182
10731947,1593586676.582,8182
10731948,1593586676.584,8181
10731949,1593586676.586,8181
10731950,1593586676.588,8181
10731951,1593586676.59,8181
10731952,1593586676.592,8181
10731953,1593586676.594,8180
10731954,1593586676.596,8180
10731955,1593586676.598,8179
10731956,1593586676.6,8179
10731957,1593586676.602,8179
10731958,1593586676.604,8179
10731959,1593586676.606,8179
10731960,1593586676.608,8178
10731961,1593586676.61,8178
10731962,1593586676.612,8177
10731963,1593586676.614,8176
10731964,1593586676.616,8176
10731965,1593586676.618,8176
10731966,1593586676.62,8177
10731967,1593586676.622,8178
10731968,1593586676.624,8178
10731969,1593586676.626,8178
10731970,1593586676.628,8177
10731971,1593586676.63,8176
10731972,1593586676.632,8176
10731973,1593586676.634,8176
10731974,1593586676.636,8176
10731975,1593586676.638,8176
10731976,1593586676.64,8176
10731977,1593586676.642,8175
10731978,1593586676.644,8175
10731979,1593586676.646,8175
10731980,1593586676.648,8175
10731981,1593586676.65,8174
10731982,1593586676.652,8174
10731983,1593586676.654,8175
10731984,1593586676.656,8174
10731985,1593586676.658,8174
10731986,1593586676.66,8173
10731987,1593586676.662,8172
10731988,1593586676.664,8172
10731989,1593586676.666,8172
10731990,1593586676.668,8172
10731991,1593586676.67,8173
10731992,1593586676.672,8173
10731993,1593586676.674,8173
10731994,1593586676.676,8173
10731995,1593586676.678,8173
10731996,1593586676.68,8173
10731997,1593586676.682,8173
10731998,1593586676.684,8173
10731999,1593586676.686,8174
10732000,1593586676.688,8174
10732001,1593586676.69,8174
10732002,1593586676.692,8174
10732003,1593586676.694,8175
10732004,1593586676.696,8175
10732005,1593586676.698,8175
10732006,1593586676.7,8175
10732007,1593586676.702,8176
10732008,1593586676.704,8176
10732009,1593586676.706,8177
10732010,1593586676.708,8177
10732011,1593586676.71,8177
10732012,1593586676.712,8177
10732013,1593586676.714,8177
10732014,1593586676.716,8177
10732015,1593586676.718,8178
10732016,1593586676.72,8179
10732017,1593586676.722,8179
10732018,1593586676.724,8180
10732019,1593586676.726,8180
10732020,1593586676.728,8181
10732021,1593586676.73,8181
10732022,1593586676.732,8182
10732023,1593586676.734,8182
10732024,1593586676.736,8183
10732025,1593586676.738,8184
10732026,1593586676.74,8185
10732027,1593586676.742,8186
10732028,1593586676.744,8187
10732029,1593586676.746,8188
10732030,1593586676.748,8189
10732031,1593586676.75,8190
10732032,1593586676.752,8191
10732033,1593586676.754,8193
10732034,1593586676.756,8194
10732035,1593586676.758,8195
10732036,1593586676.76,8196
10732037,1593586676.762,8198
10732038,1593586676.764,8199
10732039,1593586676.766,8201
10732040,1593586676.768,8203
10732041,1593586676.77,8204
10732042,1593586676.772,8205
10732043,1593586676.774,8207
10732044,1593586676.776,8208
10732045,1593586676.778,8209
10732046,1593586676.78,8210
10732047,1593586676.782,8212
10732048,1593586676.784,8214
10732049,1593586676.786,8216
10732050,1593586676.788,8218
10732051,1593586676.79,8219
10732052,1593586676.792,8221
10732053,1593586676.794,8222
10732054,1593586676.796,8223
10732055,1593586676.798,8225
10732056,1593586676.8,8226
10732057,1593586676.802,8227
10732058,1593586676.804,8229
10732059,1593586676.806,8231
10732060,1593586676.808,8232
10732061,1593586676.81,8234
10732062,1593586676.812,8235
10732063,1593586676.814,8236
10732064,1593586676.816,8237
10732065,1593586676.818,8238
10732066,1593586676.82,8238
10732067,1593586676.822,8239
10732068,1593586676.824,8241
10732069,1593586676.826,8242
10732070,1593586676.828,8242
10732071,1593586676.83,8242
10732072,1593586676.832,8241
10732073,1593586676.834,8241
10732074,1593586676.836,8240
10732075,1593586676.838,8240
10732076,1593586676.84,8239
10732077,1593586676.842,8238
10732078,1593586676.844,8237
10732079,1593586676.846,8236
10732080,1593586676.848,8235
10732081,1593586676.85,8234
10732082,1593586676.852,8233
10732083,1593586676.854,8231
10732084,1593586676.856,8230
10732085,1593586676.858,8229
10732086,1593586676.86,8227
10732087,1593586676.862,8226
10732088,1593586676.864,8225
10732089,1593586676.866,8224
10732090,1593586676.868,8223
10732091,1593586676.87,8222
10732092,1593586676.872,8222
10732093,1593586676.874,8222
10732094,1593586676.876,8221
10732095,1593586676.878,8220
10732096,1593586676.88,8219
10732097,1593586676.882,8218
10732098,1593586676.884,8218
10732099,1593586676.886,8218
10732100,1593586676.888,8218
10732101,1593586676.89,8217
10732102,1593586676.892,8216
10732103,1593586676.894,8215
10732104,1593586676.896,8216
10732105,1593586676.898,8219
10732106,1593586676.9,8222
10732107,1593586676.902,8225
10732108,1593586676.904,8227
10732109,1593586676.906,8228
10732110,1593586676.908,8228
10732111,1593586676.91,8227
10732112,1593586676.912,8226
10732113,1593586676.914,8223
10732114,1593586676.916,8221
10732115,1593586676.918,8221
10732116,1593586676.92,8221
10732117,1593586676.922,8222
10732118,1593586676.924,8221
10732119,1593586676.926,8219
10732120,1593586676.928,8216
10732121,1593586676.93,8213
10732122,1593586676.932,8211
10732123,1593586676.934,8208
10732124,1593586676.936,8205
10732125,1593586676.938,8200
10732126,1593586676.94,8196
10732127,1593586676.942,8191
10732128,1593586676.944,8188
10732129,1593586676.946,8186
10732130,1593586676.948,8186
10732131,1593586676.95,8186
10732132,1593586676.952,8186
10732133,1593586676.954,8186
10732134,1593586676.956,8185
10732135,1593586676.958,8185
10732136,1593586676.96,8184
10732137,1593586676.962,8184
10732138,1593586676.964,8184
10732139,1593586676.966,8184
10732140,1593586676.968,8184
10732141,1593586676.97,8184
10732142,1593586676.972,8184
10732143,1593586676.974,8185
10732144,1593586676.976,8185
10732145,1593586676.978,8185
10732146,1593586676.98,8185
10732147,1593586676.982,8184
10732148,1593586676.984,8185
10732149,1593586676.986,8185
10732150,1593586676.988,8185
10732151,1593586676.99,8185
10732152,1593586676.992,8185
10732153,1593586676.994,8185
10732154,1593586676.996,8184
10732155,1593586676.998,8184
10732156,1593586677.0,8185
10732157,1593586677.002,8185
10732158,1593586677.004,8185
10732159,1593586677.006,8185
10732160,1593586677.008,8185
10732161,1593586677.01,8186
10732162,1593586677.012,8186
10732163,1593586677.014,8186
10732164,1593586677.016,8186
10732165,1593586677.018,8186
10732166,1593586677.02,8186
10732167,1593586677.022,8187
10732168,1593586677.024,8187
10732169,1593586677.026,8186
10732170,1593586677.028,8186
10732171,1593586677.03,8186
10732172,1593586677.032,8186
10732173,1593586677.034,8186
10732174,1593586677.036,8186
10732175,1593586677.038,8187
10732176,1593586677.04,8187
10732177,1593586677.042,8188
10732178,1593586677.044,8191
10732179,1593586677.046,8197
10732180,1593586677.048,8205
10732181,1593586677.05,8218
10732182,1593586677.052,8236
10732183,1593586677.054,8259
10732184,1593586677.056,8286
10732185,1593586677.058,8314
10732186,1593586677.06,8344
10732187,1593586677.062,8371
10732188,1593586677.064,8392
10732189,1593586677.066,8402
10732190,1593586677.068,8401
10732191,1593586677.07,8387
10732192,1593586677.072,8361
10732193,1593586677.074,8324
10732194,1593586677.076,8279
10732195,1593586677.078,8231
10732196,1593586677.08,8183
10732197,1593586677.082,8140
10732198,1593586677.084,8106
10732199,1593586677.086,8083
10732200,1593586677.088,8066
10732201,1593586677.09,8045
10732202,1593586677.092,8016
10732203,1593586677.094,7980
10732204,1593586677.096,7941
10732205,1593586677.098,7904
10732206,1593586677.1,7872
10732207,1593586677.102,7852
10732208,1593586677.104,7849
10732209,1593586677.106,7862
10732210,1593586677.108,7887
10732211,1593586677.11,7919
10732212,1593586677.112,7957
10732213,1593586677.114,7998
10732214,1593586677.116,8041
10732215,1593586677.118,8081
10732216,1593586677.12,8117
10732217,1593586677.122,8144
10732218,1593586677.124,8162
10732219,1593586677.126,8173
10732220,1593586677.128,8179
10732221,1593586677.13,8182
10732222,1593586677.132,8183
10732223,1593586677.134,8184
10732224,1593586677.136,8185
10732225,1593586677.138,8185
10732226,1593586677.14,8184
10732227,1593586677.142,8184
10732228,1593586677.144,8184
10732229,1593586677.146,8183
10732230,1593586677.148,8183
10732231,1593586677.15,8183
10732232,1593586677.152,8183
10732233,1593586677.154,8184
10732234,1593586677.156,8184
10732235,1593586677.158,8184
10732236,1593586677.16,8183
10732237,1593586677.162,8183
10732238,1593586677.164,8183
10732239,1593586677.166,8183
10732240,1593586677.168,8183
10732241,1593586677.17,8182
10732242,1593586677.172,8181
10732243,1593586677.174,8181
10732244,1593586677.176,8180
10732245,1593586677.178,8180
10732246,1593586677.18,8180
10732247,1593586677.182,8180
10732248,1593586677.184,8180
10732249,1593586677.186,8181
10732250,1593586677.188,8181
10732251,1593586677.19,8181
10732252,1593586677.192,8180
10732253,1593586677.194,8179
10732254,1593586677.196,8178
10732255,1593586677.198,8177
10732256,1593586677.2,8177
10732257,1593586677.202,8177
10732258,1593586677.204,8177
10732259,1593586677.206,8178
10732260,1593586677.208,8178
10732261,1593586677.21,8177
10732262,1593586677.212,8177
10732263,1593586677.214,8176
10732264,1593586677.216,8176
10732265,1593586677.218,8176
10732266,1593586677.22,8177
10732267,1593586677.222,8177
10732268,1593586677.224,8177
10732269,1593586677.226,8177
10732270,1593586677.228,8176
10732271,1593586677.23,8176
10732272,1593586677.232,8176
10732273,1593586677.234,8176
10732274,1593586677.236,8176
10732275,1593586677.238,8176
10732276,1593586677.24,8175
10732277,1593586677.242,8175
10732278,1593586677.244,8174
10732279,1593586677.246,8173
10732280,1593586677.248,8174
10732281,1593586677.25,8174
10732282,1593586677.252,8174
10732283,1593586677.254,8174
10732284,1593586677.256,8174
10732285,1593586677.258,8174
10732286,1593586677.26,8174
10732287,1593586677.262,8174
10732288,1593586677.264,8175
10732289,1593586677.266,8175
10732290,1593586677.268,8174
10732291,1593586677.27,8174
10732292,1593586677.272,8174
10732293,1593586677.274,8173
10732294,1593586677.276,8173
10732295,1593586677.278,8173
10732296,1593586677.28,8173
10732297,1593586677.282,8173
10732298,1593586677.284,8174
10732299,1593586677.286,8174
10732300,1593586677.288,8175
10732301,1593586677.29,8175
10732302,1593586677.292,8175
10732303,1593586677.294,8175
10732304,1593586677.296,8175
10732305,1593586677.298,8175
10732306,1593586677.3,8175
10732307,1593586677.302,8176
10732308,1593586677.304,8176
10732309,1593586677.306,8176
10732310,1593586677.308,8175
10732311,1593586677.31,8175
10732312,1593586677.312,8175
10732313,1593586677.314,8176
10732314,1593586677.316,8176
10732315,1593586677.318,8177
10732316,1593586677.32,8178
10732317,1593586677.322,8178
10732318,1593586677.324,8179
10732319,1593586677.326,8179
10732320,1593586677.328,8179
10732321,1593586677.33,8180
10732322,1593586677.332,8180
10732323,1593586677.334,8180
10732324,1593586677.336,8181
10732325,1593586677.338,8182
10732326,1593586677.34,8183
10732327,1593586677.342,8183
10732328,1593586677.344,8183
10732329,1593586677.346,8184
10732330,1593586677.348,8185
10732331,1593586677.35,8186
10732332,1593586677.352,8187
10732333,1593586677.354,8188
10732334,1593586677.356,8189
10732335,1593586677.358,8190
10732336,1593586677.36,8190
10732337,1593586677.362,8191
10732338,1593586677.364,8192
10732339,1593586677.366,8194
10732340,1593586677.368,8195
10732341,1593586677.37,8196
10732342,1593586677.372,8198
10732343,1593586677.374,8199
10732344,1593586677.376,8200
10732345,1593586677.378,8201
10732346,1593586677.38,8202
10732347,1593586677.382,8204
10732348,1593586677.384,8205
10732349,1593586677.386,8207
10732350,1593586677.388,8209
10732351,1593586677.39,8210
10732352,1593586677.392,8211
10732353,1593586677.394,8213
10732354,1593586677.396,8215
10732355,1593586677.398,8216
10732356,1593586677.4,8217
10732357,1593586677.402,8218
10732358,1593586677.404,8220
10732359,1593586677.406,8222
10732360,1593586677.408,8224
10732361,1593586677.41,8225
10732362,1593586677.412,8227
10732363,1593586677.414,8228
10732364,1593586677.416,8229
10732365,1593586677.418,8231
10732366,1593586677.42,8233
10732367,1593586677.422,8235
10732368,1593586677.424,8236
10732369,1593586677.426,8237
10732370,1593586677.428,8237
10732371,1593586677.43,8238
10732372,1593586677.432,8239
10732373,1593586677.434,8240
10732374,1593586677.436,8240
10732375,1593586677.438,8241
10732376,1593586677.44,8241
10732377,1593586677.442,8241
10732378,1593586677.444,8240
10732379,1593586677.446,8240
10732380,1593586677.448,8239
10732381,1593586677.45,8239
10732382,1593586677.452,8239
10732383,1593586677.454,8239
10732384,1593586677.456,8238
10732385,1593586677.458,8237
10732386,1593586677.46,8236
10732387,1593586677.462,8235
10732388,1593586677.464,8234
10732389,1593586677.466,8233
10732390,1593586677.468,8232
10732391,1593586677.47,8231
10732392,1593586677.472,8229
10732393,1593586677.474,8228
10732394,1593586677.476,8226
10732395,1593586677.478,8224
10732396,1593586677.48,8223
10732397,1593586677.482,8222
10732398,1593586677.484,8222
10732399,1593586677.486,8222
10732400,1593586677.488,8223
10732401,1593586677.49,8222
10732402,1593586677.492,8221
10732403,1593586677.494,8220
10732404,1593586677.496,8219
10732405,1593586677.498,8219
10732406,1593586677.5,8218
10732407,1593586677.502,8216
10732408,1593586677.504,8214
10732409,1593586677.506,8213
10732410,1593586677.508,8214
10732411,1593586677.51,8217
10732412,1593586677.512,8221
10732413,1593586677.514,8225
10732414,1593586677.516,8229
10732415,1593586677.518,8231
10732416,1593586677.52,8232
10732417,1593586677.522,8232
10732418,1593586677.524,8230
10732419,1593586677.526,8227
10732420,1593586677.528,8225
10732421,1593586677.53,8223
10732422,1593586677.532,8222
10732423,1593586677.534,8222
10732424,1593586677.536,8222
10732425,1593586677.538,8222
10732426,1593586677.54,8220
10732427,1593586677.542,8218
10732428,1593586677.544,8215
10732429,1593586677.546,8211
10732430,1593586677.548,8208
10732431,1593586677.55,8204
10732432,1593586677.552,8200
10732433,1593586677.554,8196
10732434,1593586677.556,8192
10732435,1593586677.558,8190
10732436,1593586677.56,8189
10732437,1593586677.562,8188
10732438,1593586677.564,8189
10732439,1593586677.566,8189
10732440,1593586677.568,8189
10732441,1593586677.57,8188
10732442,1593586677.572,8188
10732443,1593586677.574,8188
10732444,1593586677.576,8187
10732445,1593586677.578,8187
10732446,1593586677.58,8186
10732447,1593586677.582,8186
10732448,1593586677.584,8186
10732449,1593586677.586,8186
10732450,1593586677.588,8187
10732451,1593586677.59,8187
10732452,1593586677.592,8187
10732453,1593586677.594,8187
10732454,1593586677.596,8187
10732455,1593586677.598,8187
10732456,1593586677.6,8187
10732457,1593586677.602,8188
10732458,1593586677.604,8188
10732459,1593586677.606,8188
10732460,1593586677.608,8188
10732461,1593586677.61,8188
10732462,1593586677.612,8188
10732463,1593586677.614,8188
10732464,1593586677.616,8188
10732465,1593586677.618,8188
10732466,1593586677.62,8188
10732467,1593586677.622,8188
10732468,1593586677.624,8188
10732469,1593586677.626,8188
10732470,1593586677.628,8188
10732471,1593586677.63,8188
10732472,1593586677.632,8188
10732473,1593586677.634,8189
10732474,1593586677.636,8189
10732475,1593586677.638,8189
10732476,1593586677.64,8189
10732477,1593586677.642,8189
10732478,1593586677.644,8189
10732479,1593586677.646,8189
10732480,1593586677.648,8190
10732481,1593586677.65,8190
10732482,1593586677.652,8191
10732483,1593586677.654,8192
10732484,1593586677.656,8194
10732485,1593586677.658,8198
10732486,1593586677.66,8204
10732487,1593586677.662,8212
10732488,1593586677.664,8226
10732489,1593586677.666,8246
10732490,1593586677.668,8272
10732491,1593586677.67,8300
10732492,1593586677.672,8330
10732493,1593586677.674,8360
10732494,1593586677.676,8385
10732495,1593586677.678,8402
10732496,1593586677.68,8409
10732497,1593586677.682,8405
10732498,1593586677.684,8389
10732499,1593586677.686,8360
10732500,1593586677.688,8319
10732501,1593586677.69,8271
10732502,1593586677.692,8221
10732503,1593586677.694,8174
10732504,1593586677.696,8132
10732505,1593586677.698,8101
10732506,1593586677.7,8080
10732507,1593586677.702,8064
10732508,1593586677.704,8045
10732509,1593586677.706,8016
10732510,1593586677.708,7978
10732511,1593586677.71,7937
10732512,1593586677.712,7898
10732513,1593586677.714,7868
10732514,1593586677.716,7852
10732515,1593586677.718,7855
10732516,1593586677.72,7873
10732517,1593586677.722,7900
10732518,1593586677.724,7931
10732519,1593586677.726,7967
10732520,1593586677.728,8008
10732521,1593586677.73,8051
10732522,1593586677.732,8093
10732523,1593586677.734,8128
10732524,1593586677.736,8153
10732525,1593586677.738,8169
10732526,1593586677.74,8179
10732527,1593586677.742,8183
10732528,1593586677.744,8185
10732529,1593586677.746,8186
10732530,1593586677.748,8187
10732531,1593586677.75,8187
10732532,1593586677.752,8188
10732533,1593586677.754,8188
10732534,1593586677.756,8188
10732535,1593586677.758,8188
10732536,1593586677.76,8188
10732537,1593586677.762,8187
10732538,1593586677.764,8187
10732539,1593586677.766,8187
10732540,1593586677.768,8187
10732541,1593586677.77,8187
10732542,1593586677.772,8187
10732543,1593586677.774,8186
10732544,1593586677.776,8186
10732545,1593586677.778,8185
10732546,1593586677.78,8185
10732547,1593586677.782,8185
10732548,1593586677.784,8185
10732549,1593586677.786,8185
10732550,1593586677.788,8184
10732551,1593586677.79,8184
10732552,1593586677.792,8184
10732553,1593586677.794,8184
10732554,1593586677.796,8184
10732555,1593586677.798,8183
10732556,1593586677.8,8183
10732557,1593586677.802,8183
10732558,1593586677.804,8183
10732559,1593586677.806,8182
10732560,1593586677.808,8182
10732561,1593586677.81,8181
10732562,1593586677.812,8181
10732563,1593586677.814,8181
10732564,1593586677.816,8181
10732565,1593586677.818,8181
10732566,1593586677.82,8181
10732567,1593586677.822,8182
10732568,1593586677.824,8182
10732569,1593586677.826,8181
10732570,1593586677.828,8181
10732571,1593586677.83,8181
10732572,1593586677.832,8181
10732573,1593586677.834,8181
10732574,1593586677.836,8181
10732575,1593586677.838,8180
10732576,1593586677.84,8180
10732577,1593586677.842,8179
10732578,1593586677.844,8178
10732579,1593586677.846,8178
10732580,1593586677.848,8178
10732581,1593586677.85,8178
10732582,1593586677.852,8178
10732583,1593586677.854,8179
10732584,1593586677.856,8179
10732585,1593586677.858,8179
10732586,1593586677.86,8178
10732587,1593586677.862,8178
10732588,1593586677.864,8177
10732589,1593586677.866,8177
10732590,1593586677.868,8177
10732591,1593586677.87,8177
10732592,1593586677.872,8177
10732593,1593586677.874,8176
10732594,1593586677.876,8176
10732595,1593586677.878,8176
10732596,1593586677.88,8176
10732597,1593586677.882,8176
10732598,1593586677.884,8175
10732599,1593586677.886,8175
10732600,1593586677.888,8174
10732601,1593586677.89,8174
10732602,1593586677.892,8174
10732603,1593586677.894,8174
10732604,1593586677.896,8174
10732605,1593586677.898,8174
10732606,1593586677.9,8174
10732607,1593586677.902,8174
10732608,1593586677.904,8174
10732609,1593586677.906,8174
10732610,1593586677.908,8174
10732611,1593586677.91,8174
10732612,1593586677.912,8174
10732613,1593586677.914,8174
10732614,1593586677.916,8174
10732615,1593586677.918,8174
10732616,1593586677.92,8174
10732617,1593586677.922,8174
10732618,1593586677.924,8174
10732619,1593586677.926,8175
10732620,1593586677.928,8175
10732621,1593586677.93,8175
10732622,1593586677.932,8175
10732623,1593586677.934,8176
10732624,1593586677.936,8176
10732625,1593586677.938,8176
10732626,1593586677.94,8176
10732627,1593586677.942,8177
10732628,1593586677.944,8178
10732629,1593586677.946,8178
10732630,1593586677.948,8179
10732631,1593586677.95,8180
10732632,1593586677.952,8180
10732633,1593586677.954,8181
10732634,1593586677.956,8182
10732635,1593586677.958,8182
10732636,1593586677.96,8183
10732637,1593586677.962,8184
10732638,1593586677.964,8185
10732639,1593586677.966,8186
10732640,1593586677.968,8187
10732641,1593586677.97,8188
10732642,1593586677.972,8189
10732643,1593586677.974,8190
10732644,1593586677.976,8190
10732645,1593586677.978,8191
10732646,1593586677.98,8191
10732647,1593586677.982,8192
10732648,1593586677.984,8194
10732649,1593586677.986,8195
10732650,1593586677.988,8197
10732651,1593586677.99,8199
10732652,1593586677.992,8200
10732653,1593586677.994,8202
10732654,1593586677.996,8203
10732655,1593586677.998,8205
10732656,1593586678.0,8206
10732657,1593586678.002,8208
10732658,1593586678.004,8210
10732659,1593586678.006,8212
10732660,1593586678.008,8213
10732661,1593586678.01,8214
10732662,1593586678.012,8215
10732663,1593586678.014,8216
10732664,1593586678.016,8218
10732665,1593586678.018,8220
10732666,1593586678.02,8222
10732667,1593586678.022,8224
10732668,1593586678.024,8225
10732669,1593586678.026,8227
10732670,1593586678.028,8228
10732671,1593586678.03,8229
10732672,1593586678.032,8230
10732673,1593586678.034,8231
10732674,1593586678.036,8233
10732675,1593586678.038,8234
10732676,1593586678.04,8236
10732677,1593586678.042,8237
10732678,1593586678.044,8238
10732679,1593586678.046,8238
10732680,1593586678.048,8238
10732681,1593586678.05,8239
10732682,1593586678.052,8239
10732683,1593586678.054,8240
10732684,1593586678.056,8240
10732685,1593586678.058,8240
10732686,1593586678.06,8240
10732687,1593586678.062,8240
10732688,1593586678.064,8239
10732689,1593586678.066,8238
10732690,1593586678.068,8237
10732691,1593586678.07,8236
10732692,1593586678.072,8236
10732693,1593586678.074,8235
10732694,1593586678.076,8234
10732695,1593586678.078,8233
10732696,1593586678.08,8231
10732697,1593586678.082,8230
10732698,1593586678.084,8228
10732699,1593586678.086,8227
10732700,1593586678.088,8226
10732701,1593586678.09,8225
10732702,1593586678.092,8223
10732703,1593586678.094,8222
10732704,1593586678.096,8222
10732705,1593586678.098,8221
10732706,1593586678.1,8221
10732707,1593586678.102,8221
10732708,1593586678.104,8221
10732709,1593586678.106,8220
10732710,1593586678.108,8220
10732711,1593586678.11,8219
10732712,1593586678.112,8218
10732713,1593586678.114,8216
10732714,1593586678.116,8214
10732715,1593586678.118,8211
10732716,1593586678.12,8210
10732717,1593586678.122,8211
10732718,1593586678.124,8214
10732719,1593586678.126,8219
10732720,1593586678.128,8223
10732721,1593586678.13,8227
10732722,1593586678.132,8230
10732723,1593586678.134,8231
10732724,1593586678.136,8230
10732725,1593586678.138,8228
10732726,1593586678.14,8226
10732727,1593586678.142,8224
10732728,1593586678.144,8221
10732729,1593586678.146,8220
10732730,1593586678.148,8220
10732731,1593586678.15,8220
10732732,1593586678.152,8219
10732733,1593586678.154,8218
10732734,1593586678.156,8217
10732735,1593586678.158,8214
10732736,1593586678.16,8212
10732737,1593586678.162,8209
10732738,1593586678.164,8206
10732739,1593586678.166,8202
10732740,1593586678.168,8197
10732741,1593586678.17,8194
10732742,1593586678.172,8190
10732743,1593586678.174,8188
10732744,1593586678.176,8187
10732745,1593586678.178,8187
10732746,1593586678.18,8187
10732747,1593586678.182,8187
10732748,1593586678.184,8187
10732749,1593586678.186,8187
10732750,1593586678.188,8187
10732751,1593586678.19,8187
10732752,1593586678.192,8187
10732753,1593586678.194,8187
10732754,1593586678.196,8187
10732755,1593586678.198,8188
10732756,1593586678.2,8188
10732757,1593586678.202,8189
10732758,1593586678.204,8189
10732759,1593586678.206,8189
10732760,1593586678.208,8188
10732761,1593586678.21,8188
10732762,1593586678.212,8187
10732763,1593586678.214,8187
10732764,1593586678.216,8187
10732765,1593586678.218,8187
10732766,1593586678.22,8187
10732767,1593586678.222,8188
10732768,1593586678.224,8188
10732769,1593586678.226,8187
10732770,1593586678.228,8187
10732771,1593586678.23,8187
10732772,1593586678.232,8187
10732773,1593586678.234,8188
10732774,1593586678.236,8188
10732775,1593586678.238,8188
10732776,1593586678.24,8188
10732777,1593586678.242,8188
10732778,1593586678.244,8188
10732779,1593586678.246,8188
10732780,1593586678.248,8188
10732781,1593586678.25,8188
10732782,1593586678.252,8188
10732783,1593586678.254,8188
10732784,1593586678.256,8188
10732785,1593586678.258,8189
10732786,1593586678.26,8189
10732787,1593586678.262,8189
10732788,1593586678.264,8189
10732789,1593586678.266,8190
10732790,1593586678.268,8191
10732791,1593586678.27,8193
10732792,1593586678.272,8196
10732793,1593586678.274,8202
10732794,1593586678.276,8211
10732795,1593586678.278,8225
10732796,1593586678.28,8245
10732797,1593586678.282,8271
10732798,1593586678.284,8299
10732799,1593586678.286,8329
10732800,1593586678.288,8358
10732801,1593586678.29,8384
10732802,1593586678.292,8401
10732803,1593586678.294,8409
10732804,1593586678.296,8407
10732805,1593586678.298,8392
10732806,1593586678.3,8363
10732807,1593586678.302,8321
10732808,1593586678.304,8273
10732809,1593586678.306,8224
10732810,1593586678.308,8176
10732811,1593586678.31,8135
10732812,1593586678.312,8104
10732813,1593586678.314,8083
10732814,1593586678.316,8068
10732815,1593586678.318,8048
10732816,1593586678.32,8018
10732817,1593586678.322,7979
10732818,1593586678.324,7937
10732819,1593586678.326,7898
10732820,1593586678.328,7867
10732821,1593586678.33,7851
10732822,1593586678.332,7852
10732823,1593586678.334,7867
10732824,1593586678.336,7893
10732825,1593586678.338,7925
10732826,1593586678.34,7962
10732827,1593586678.342,8004
10732828,1593586678.344,8048
10732829,1593586678.346,8091
10732830,1593586678.348,8127
10732831,1593586678.35,8153
10732832,1593586678.352,8169
10732833,1593586678.354,8179
10732834,1593586678.356,8184
10732835,1593586678.358,8186
10732836,1593586678.36,8187
10732837,1593586678.362,8188
10732838,1593586678.364,8188
10732839,1593586678.366,8188
10732840,1593586678.368,8189
10732841,1593586678.37,8190
10732842,1593586678.372,8190
10732843,1593586678.374,8189
10732844,1593586678.376,8189
10732845,1593586678.378,8188
10732846,1593586678.38,8188
10732847,1593586678.382,8188
10732848,1593586678.384,8188
10732849,1593586678.386,8188
10732850,1593586678.388,8188
10732851,1593586678.39,8188
10732852,1593586678.392,8188
10732853,1593586678.394,8188
10732854,1593586678.396,8187
10732855,1593586678.398,8187
10732856,1593586678.4,8187
10732857,1593586678.402,8187
10732858,1593586678.404,8187
10732859,1593586678.406,8187
10732860,1593586678.408,8186
10732861,1593586678.41,8185
10732862,1593586678.412,8184
10732863,1593586678.414,8184
10732864,1593586678.416,8184
10732865,1593586678.418,8184
10732866,1593586678.42,8184
10732867,1593586678.422,8184
10732868,1593586678.424,8184
10732869,1593586678.426,8183
10732870,1593586678.428,8183
10732871,1593586678.43,8182
10732872,1593586678.432,8182
10732873,1593586678.434,8182
10732874,1593586678.436,8182
10732875,1593586678.438,8181
10732876,1593586678.44,8180
10732877,1593586678.442,8180
10732878,1593586678.444,8179
10732879,1593586678.446,8179
10732880,1593586678.448,8179
10732881,1593586678.45,8180
10732882,1593586678.452,8180
10732883,1593586678.454,8180
10732884,1593586678.456,8180
10732885,1593586678.458,8180
10732886,1593586678.46,8179
10732887,1593586678.462,8179
10732888,1593586678.464,8179
10732889,1593586678.466,8179
10732890,1593586678.468,8178
10732891,1593586678.47,8178
10732892,1593586678.472,8178
10732893,1593586678.474,8177
10732894,1593586678.476,8176
10732895,1593586678.478,8176
10732896,1593586678.48,8176
10732897,1593586678.482,8176
10732898,1593586678.484,8176
10732899,1593586678.486,8176
10732900,1593586678.488,8176
10732901,1593586678.49,8176
10732902,1593586678.492,8175
10732903,1593586678.494,8175
10732904,1593586678.496,8174
10732905,1593586678.498,8174
10732906,1593586678.5,8175
10732907,1593586678.502,8175
10732908,1593586678.504,8175
10732909,1593586678.506,8175
10732910,1593586678.508,8175
10732911,1593586678.51,8174
10732912,1593586678.512,8174
10732913,1593586678.514,8174
10732914,1593586678.516,8175
10732915,1593586678.518,8175
10732916,1593586678.52,8175
10732917,1593586678.522,8175
10732918,1593586678.524,8175
10732919,1593586678.526,8175
10732920,1593586678.528,8175
10732921,1593586678.53,8176
10732922,1593586678.532,8176
10732923,1593586678.534,8177
10732924,1593586678.536,8177
10732925,1593586678.538,8177
10732926,1593586678.54,8176
10732927,1593586678.542,8176
10732928,1593586678.544,8176
10732929,1593586678.546,8176
10732930,1593586678.548,8177
10732931,1593586678.55,8178
10732932,1593586678.552,8179
10732933,1593586678.554,8179
10732934,1593586678.556,8180
10732935,1593586678.558,8180
10732936,1593586678.56,8180
10732937,1593586678.562,8180
10732938,1593586678.564,8181
10732939,1593586678.566,8181
10732940,1593586678.568,8182
10732941,1593586678.57,8183
10732942,1593586678.572,8184
10732943,1593586678.574,8184
10732944,1593586678.576,8185
10732945,1593586678.578,8185
10732946,1593586678.58,8186
10732947,1593586678.582,8187
10732948,1593586678.584,8188
10732949,1593586678.586,8190
10732950,1593586678.588,8191
10732951,1593586678.59,8192
10732952,1593586678.592,8193
10732953,1593586678.594,8194
10732954,1593586678.596,8195
10732955,1593586678.598,8196
10732956,1593586678.6,8197
10732957,1593586678.602,8199
10732958,1593586678.604,8200
10732959,1593586678.606,8202
10732960,1593586678.608,8203
10732961,1593586678.61,8203
10732962,1593586678.612,8204
10732963,1593586678.614,8205
10732964,1593586678.616,8206
10732965,1593586678.618,8208
10732966,1593586678.62,8209
10732967,1593586678.622,8211
10732968,1593586678.624,8214
10732969,1593586678.626,8215
10732970,1593586678.628,8217
10732971,1593586678.63,8219
10732972,1593586678.632,8220
10732973,1593586678.634,8222
10732974,1593586678.636,8224
10732975,1593586678.638,8226
10732976,1593586678.64,8228
10732977,1593586678.642,8229
10732978,1593586678.644,8229
10732979,1593586678.646,8230
10732980,1593586678.648,8231
10732981,1593586678.65,8232
10732982,1593586678.652,8234
10732983,1593586678.654,8235
10732984,1593586678.656,8236
10732985,1593586678.658,8236
10732986,1593586678.66,8236
10732987,1593586678.662,8237
10732988,1593586678.664,8237
10732989,1593586678.666,8237
10732990,1593586678.668,8237
10732991,1593586678.67,8237
10732992,1593586678.672,8237
10732993,1593586678.674,8237
10732994,1593586678.676,8236
10732995,1593586678.678,8236
10732996,1593586678.68,8235
10732997,1593586678.682,8235
10732998,1593586678.684,8234
10732999,1593586678.686,8233
10733000,1593586678.688,8232
10733001,1593586678.69,8231
10733002,1593586678.692,8230
10733003,1593586678.694,8228
10733004,1593586678.696,8227
10733005,1593586678.698,8225
10733006,1593586678.7,8224
10733007,1593586678.702,8222
10733008,1593586678.704,8221
10733009,1593586678.706,8219
10733010,1593586678.708,8217
10733011,1593586678.71,8216
10733012,1593586678.712,8214
10733013,1593586678.714,8213
10733014,1593586678.716,8212
10733015,1593586678.718,8212
10733016,1593586678.72,8211
10733017,1593586678.722,8211
10733018,1593586678.724,8210
10733019,1593586678.726,8209
10733020,1593586678.728,8208
10733021,1593586678.73,8207
10733022,1593586678.732,8204
10733023,1593586678.734,8201
10733024,1593586678.736,8197
10733025,1593586678.738,8196
10733026,1593586678.74,8196
10733027,1593586678.742,8199
10733028,1593586678.744,8203
10733029,1593586678.746,8208
10733030,1593586678.748,8212
10733031,1593586678.75,8215
10733032,1593586678.752,8216
10733033,1593586678.754,8216
10733034,1593586678.756,8214
10733035,1593586678.758,8212
10733036,1593586678.76,8210
10733037,1593586678.762,8208
10733038,1593586678.764,8207
10733039,1593586678.766,8206
10733040,1593586678.768,8206
10733041,1593586678.77,8205
10733042,1593586678.772,8204
10733043,1593586678.774,8201
10733044,1593586678.776,8198
10733045,1593586678.778,8195
10733046,1593586678.78,8192
10733047,1593586678.782,8188
10733048,1593586678.784,8183
10733049,1593586678.786,8179
10733050,1593586678.788,8175
10733051,1593586678.79,8172
10733052,1593586678.792,8170
10733053,1593586678.794,8168
10733054,1593586678.796,8167
10733055,1593586678.798,8166
10733056,1593586678.8,8165
10733057,1593586678.802,8164
10733058,1593586678.804,8162
10733059,1593586678.806,8161
10733060,1593586678.808,8159
10733061,1593586678.81,8157
10733062,1593586678.812,8156
10733063,1593586678.814,8155
10733064,1593586678.816,8155
10733065,1593586678.818,8154
10733066,1593586678.82,8154
10733067,1593586678.822,8153
10733068,1593586678.824,8152
10733069,1593586678.826,8151
10733070,1593586678.828,8150
10733071,1593586678.83,8149
10733072,1593586678.832,8148
10733073,1593586678.834,8147
10733074,1593586678.836,8146
10733075,1593586678.838,8146
10733076,1593586678.84,8145
10733077,1593586678.842,8144
10733078,1593586678.844,8143
10733079,1593586678.846,8143
10733080,1593586678.848,8142
10733081,1593586678.85,8142
10733082,1593586678.852,8142
10733083,1593586678.854,8142
10733084,1593586678.856,8142
10733085,1593586678.858,8142
10733086,1593586678.86,8142
10733087,1593586678.862,8142
10733088,1593586678.864,8142
10733089,1593586678.866,8142
10733090,1593586678.868,8143
10733091,1593586678.87,8143
10733092,1593586678.872,8143
10733093,1593586678.874,8143
10733094,1593586678.876,8142
10733095,1593586678.878,8142
10733096,1593586678.88,8142
10733097,1593586678.882,8143
10733098,1593586678.884,8143
10733099,1593586678.886,8144
10733100,1593586678.888,8147
10733101,1593586678.89,8151
10733102,1593586678.892,8158
10733103,1593586678.894,8169
10733104,1593586678.896,8185
10733105,1593586678.898,8207
10733106,1593586678.9,8232
10733107,1593586678.902,8259
10733108,1593586678.904,8288
10733109,1593586678.906,8316
10733110,1593586678.908,8341
10733111,1593586678.91,8358
10733112,1593586678.912,8364
10733113,1593586678.914,8358
10733114,1593586678.916,8339
10733115,1593586678.918,8307
10733116,1593586678.92,8266
10733117,1593586678.922,8221
10733118,1593586678.924,8173
10733119,1593586678.926,8127
10733120,1593586678.928,8086
10733121,1593586678.93,8055
10733122,1593586678.932,8034
10733123,1593586678.934,8017
10733124,1593586678.936,7994
10733125,1593586678.938,7960
10733126,1593586678.94,7920
10733127,1593586678.942,7879
10733128,1593586678.944,7843
10733129,1593586678.946,7817
10733130,1593586678.948,7804
10733131,1593586678.95,7809
10733132,1593586678.952,7827
10733133,1593586678.954,7855
10733134,1593586678.956,7889
10733135,1593586678.958,7928
10733136,1593586678.96,7970
10733137,1593586678.962,8012
10733138,1593586678.964,8051
10733139,1593586678.966,8082
10733140,1593586678.968,8104
10733141,1593586678.97,8118
10733142,1593586678.972,8127
10733143,1593586678.974,8131
10733144,1593586678.976,8134
10733145,1593586678.978,8135
10733146,1593586678.98,8135
10733147,1593586678.982,8135
10733148,1593586678.984,8136
10733149,1593586678.986,8136
10733150,1593586678.988,8136
10733151,1593586678.99,8136
10733152,1593586678.992,8135
10733153,1593586678.994,8135
10733154,1593586678.996,8134
10733155,1593586678.998,8134
10733156,1593586679.0,8134
10733157,1593586679.002,8133
10733158,1593586679.004,8133
10733159,1593586679.006,8132
10733160,1593586679.008,8131
10733161,1593586679.01,8129
10733162,1593586679.012,8128
10733163,1593586679.014,8126
10733164,1593586679.016,8126
10733165,1593586679.018,8125
10733166,1593586679.02,8125
10733167,1593586679.022,8125
10733168,1593586679.024,8124
10733169,1593586679.026,8124
10733170,1593586679.028,8123
10733171,1593586679.03,8122
10733172,1593586679.032,8121
10733173,1593586679.034,8121
10733174,1593586679.036,8120
10733175,1593586679.038,8119
10733176,1593586679.04,8118
10733177,1593586679.042,8116
10733178,1593586679.044,8115
10733179,1593586679.046,8114
10733180,1593586679.048,8114
10733181,1593586679.05,8114
10733182,1593586679.052,8114
10733183,1593586679.054,8114
10733184,1593586679.056,8114
10733185,1593586679.058,8114
10733186,1593586679.06,8113
10733187,1593586679.062,8113
10733188,1593586679.064,8113
10733189,1593586679.066,8113
10733190,1593586679.068,8113
10733191,1593586679.07,8113
10733192,1593586679.072,8112
10733193,1593586679.074,8112
10733194,1593586679.076,8112
10733195,1593586679.078,8111
10733196,1593586679.08,8111
10733197,1593586679.082,8110
10733198,1593586679.084,8110
10733199,1593586679.086,8109
10733200,1593586679.088,8109
10733201,1593586679.09,8109
10733202,1593586679.092,8108
10733203,1593586679.094,8108
10733204,1593586679.096,8108
10733205,1593586679.098,8108
10733206,1593586679.1,8107
10733207,1593586679.102,8107
10733208,1593586679.104,8107
10733209,1593586679.106,8106
10733210,1593586679.108,8106
10733211,1593586679.11,8106
10733212,1593586679.112,8106
10733213,1593586679.114,8106
10733214,1593586679.116,8106
10733215,1593586679.118,8106
10733216,1593586679.12,8107
10733217,1593586679.122,8107
10733218,1593586679.124,8107
10733219,1593586679.126,8106
10733220,1593586679.128,8106
10733221,1593586679.13,8105
10733222,1593586679.132,8105
10733223,1593586679.134,8104
10733224,1593586679.136,8103
10733225,1593586679.138,8102
10733226,1593586679.14,8102
10733227,1593586679.142,8101
10733228,1593586679.144,8100
10733229,1593586679.146,8100
10733230,1593586679.148,8100
10733231,1593586679.15,8099
10733232,1593586679.152,8099
10733233,1593586679.154,8100
10733234,1593586679.156,8100
10733235,1593586679.158,8100
10733236,1593586679.16,8100
10733237,1593586679.162,8100
10733238,1593586679.164,8100
10733239,1593586679.166,8100
10733240,1593586679.168,8101
10733241,1593586679.17,8101
10733242,1593586679.172,8101
10733243,1593586679.174,8100
10733244,1593586679.176,8100
10733245,1593586679.178,8100
10733246,1593586679.18,8100
10733247,1593586679.182,8100
10733248,1593586679.184,8101
10733249,1593586679.186,8101
10733250,1593586679.188,8101
10733251,1593586679.19,8102
10733252,1593586679.192,8102
10733253,1593586679.194,8102
10733254,1593586679.196,8103
10733255,1593586679.198,8103
10733256,1593586679.2,8103
10733257,1593586679.202,8104
10733258,1593586679.204,8104
10733259,1593586679.206,8104
10733260,1593586679.208,8104
10733261,1593586679.21,8105
10733262,1593586679.212,8105
10733263,1593586679.214,8106
10733264,1593586679.216,8107
10733265,1593586679.218,8108
10733266,1593586679.22,8109
10733267,1593586679.222,8110
10733268,1593586679.224,8111
10733269,1593586679.226,8111
10733270,1593586679.228,8112
10733271,1593586679.23,8112
10733272,1593586679.232,8113
10733273,1593586679.234,8114
10733274,1593586679.236,8115
10733275,1593586679.238,8116
10733276,1593586679.24,8117
10733277,1593586679.242,8118
10733278,1593586679.244,8118
10733279,1593586679.246,8119
10733280,1593586679.248,8120
10733281,1593586679.25,8122
10733282,1593586679.252,8124
10733283,1593586679.254,8125
10733284,1593586679.256,8127
10733285,1593586679.258,8128
10733286,1593586679.26,8129
10733287,1593586679.262,8130
10733288,1593586679.264,8131
10733289,1593586679.266,8132
10733290,1593586679.268,8133
10733291,1593586679.27,8135
10733292,1593586679.272,8136
10733293,1593586679.274,8136
10733294,1593586679.276,8137
10733295,1593586679.278,8137
10733296,1593586679.28,8137
10733297,1593586679.282,8137
10733298,1593586679.284,8138
10733299,1593586679.286,8138
10733300,1593586679.288,8138
10733301,1593586679.29,8138
10733302,1593586679.292,8137
10733303,1593586679.294,8137
10733304,1593586679.296,8136
10733305,1593586679.298,8136
10733306,1593586679.3,8136
10733307,1593586679.302,8135
10733308,1593586679.304,8135
10733309,1593586679.306,8133
10733310,1593586679.308,8132
10733311,1593586679.31,8130
10733312,1593586679.312,8129
10733313,1593586679.314,8128
10733314,1593586679.316,8127
10733315,1593586679.318,8126
10733316,1593586679.32,8125
10733317,1593586679.322,8123
10733318,1593586679.324,8122
10733319,1593586679.326,8120
10733320,1593586679.328,8119
10733321,1593586679.33,8117
10733322,1593586679.332,8116
10733323,1593586679.334,8116
10733324,1593586679.336,8116
10733325,1593586679.338,8116
10733326,1593586679.34,8116
10733327,1593586679.342,8116
10733328,1593586679.344,8115
10733329,1593586679.346,8115
10733330,1593586679.348,8114
10733331,1593586679.35,8114
10733332,1593586679.352,8114
10733333,1593586679.354,8112
10733334,1593586679.356,8109
10733335,1593586679.358,8106
10733336,1593586679.36,8104
10733337,1593586679.362,8104
10733338,1593586679.364,8107
10733339,1593586679.366,8112
10733340,1593586679.368,8118
10733341,1593586679.37,8123
10733342,1593586679.372,8127
10733343,1593586679.374,8128
10733344,1593586679.376,8127
10733345,1593586679.378,8124
10733346,1593586679.38,8122
10733347,1593586679.382,8120
10733348,1593586679.384,8118
10733349,1593586679.386,8117
10733350,1593586679.388,8116
10733351,1593586679.39,8115
10733352,1593586679.392,8114
10733353,1593586679.394,8112
10733354,1593586679.396,8110
10733355,1593586679.398,8108
10733356,1593586679.4,8106
10733357,1593586679.402,8103
10733358,1593586679.404,8100
10733359,1593586679.406,8097
10733360,1593586679.408,8092
10733361,1593586679.41,8088
10733362,1593586679.412,8085
10733363,1593586679.414,8083
10733364,1593586679.416,8081
10733365,1593586679.418,8081
10733366,1593586679.42,8082
10733367,1593586679.422,8083
10733368,1593586679.424,8083
10733369,1593586679.426,8082
10733370,1593586679.428,8082
10733371,1593586679.43,8081
10733372,1593586679.432,8081
10733373,1593586679.434,8081
10733374,1593586679.436,8081
10733375,1593586679.438,8081
10733376,1593586679.44,8081
10733377,1593586679.442,8081
10733378,1593586679.444,8081
10733379,1593586679.446,8081
10733380,1593586679.448,8081
10733381,1593586679.45,8082
10733382,1593586679.452,8082
10733383,1593586679.454,8083
10733384,1593586679.456,8084
10733385,1593586679.458,8084
10733386,1593586679.46,8084
10733387,1593586679.462,8084
10733388,1593586679.464,8084
10733389,1593586679.466,8085
10733390,1593586679.468,8085
10733391,1593586679.47,8086
10733392,1593586679.472,8086
10733393,1593586679.474,8086
10733394,1593586679.476,8086
10733395,1593586679.478,8087
10733396,1593586679.48,8087
10733397,1593586679.482,8087
10733398,1593586679.484,8088
10733399,1593586679.486,8088
10733400,1593586679.488,8088
10733401,1593586679.49,8088
10733402,1593586679.492,8088
10733403,1593586679.494,8088
10733404,1593586679.496,8088
10733405,1593586679.498,8088
10733406,1593586679.5,8088
10733407,1593586679.502,8089
10733408,1593586679.504,8089
10733409,1593586679.506,8090
10733410,1593586679.508,8091
10733411,1593586679.51,8093
10733412,1593586679.512,8097
10733413,1593586679.514,8104
10733414,1593586679.516,8116
10733415,1593586679.518,8133
10733416,1593586679.52,8155
10733417,1593586679.522,8181
10733418,1593586679.524,8210
10733419,1593586679.526,8240
10733420,1593586679.528,8269
10733421,1593586679.53,8293
10733422,1593586679.532,8309
10733423,1593586679.534,8314
10733424,1593586679.536,8308
10733425,1593586679.538,8289
10733426,1593586679.54,8255
10733427,1593586679.542,8211
10733428,1593586679.544,8163
10733429,1593586679.546,8114
10733430,1593586679.548,8068
10733431,1593586679.55,8030
10733432,1593586679.552,8003
10733433,1593586679.554,7987
10733434,1593586679.556,7974
10733435,1593586679.558,7955
10733436,1593586679.56,7926
10733437,1593586679.562,7890
10733438,1593586679.564,7853
10733439,1593586679.566,7821
10733440,1593586679.568,7799
10733441,1593586679.57,7792
10733442,1593586679.572,7801
10733443,1593586679.574,7824
10733444,1593586679.576,7856
10733445,1593586679.578,7894
10733446,1593586679.58,7939
10733447,1593586679.582,7988
10733448,1593586679.584,8037
10733449,1593586679.586,8079
10733450,1593586679.588,8111
10733451,1593586679.59,8135
10733452,1593586679.592,8151
10733453,1593586679.594,8161
10733454,1593586679.596,8168
10733455,1593586679.598,8171
10733456,1593586679.6,8173
10733457,1593586679.602,8175
10733458,1593586679.604,8177
10733459,1593586679.606,8178
10733460,1593586679.608,8178
10733461,1593586679.61,8178
10733462,1593586679.612,8177
10733463,1593586679.614,8175
10733464,1593586679.616,8175
10733465,1593586679.618,8176
10733466,1593586679.62,8179
10733467,1593586679.622,8183
10733468,1593586679.624,8186
10733469,1593586679.626,8187
10733470,1593586679.628,8188
10733471,1593586679.63,8189
10733472,1593586679.632,8190
10733473,1593586679.634,8192
10733474,1593586679.636,8193
10733475,1593586679.638,8194
10733476,1593586679.64,8196
10733477,1593586679.642,8197
10733478,1593586679.644,8197
10733479,1593586679.646,8198
10733480,1593586679.648,8199
10733481,1593586679.65,8199
10733482,1593586679.652,8200
10733483,1593586679.654,8201
10733484,1593586679.656,8202
10733485,1593586679.658,8203
10733486,1593586679.66,8204
10733487,1593586679.662,8205
10733488,1593586679.664,8205
10733489,1593586679.666,8206
10733490,1593586679.668,8207
10733491,1593586679.67,8208
10733492,1593586679.672,8208
10733493,1593586679.674,8208
10733494,1593586679.676,8208
10733495,1593586679.678,8208
10733496,1593586679.68,8208
10733497,1593586679.682,8208
10733498,1593586679.684,8209
10733499,1593586679.686,8209
10733500,1593586679.688,8210
10733501,1593586679.69,8210
10733502,1593586679.692,8210
10733503,1593586679.694,8211
10733504,1593586679.696,8211
10733505,1593586679.698,8213
10733506,1593586679.7,8214
10733507,1593586679.702,8215
10733508,1593586679.704,8215
10733509,1593586679.706,8214
10733510,1593586679.708,8212
10733511,1593586679.71,8210
10733512,1593586679.712,8210
10733513,1593586679.714,8210
10733514,1593586679.716,8211
10733515,1593586679.718,8211
10733516,1593586679.72,8212
10733517,1593586679.722,8213
10733518,1593586679.724,8213
10733519,1593586679.726,8213
10733520,1593586679.728,8214
10733521,1593586679.73,8214
10733522,1593586679.732,8214
10733523,1593586679.734,8214
10733524,1593586679.736,8214
10733525,1593586679.738,8214
10733526,1593586679.74,8213
10733527,1593586679.742,8212
10733528,1593586679.744,8211
10733529,1593586679.746,8211
10733530,1593586679.748,8211
10733531,1593586679.75,8211
10733532,1593586679.752,8210
10733533,1593586679.754,8210
10733534,1593586679.756,8209
10733535,1593586679.758,8209
10733536,1593586679.76,8209
10733537,1593586679.762,8209
10733538,1593586679.764,8209
10733539,1593586679.766,8208
10733540,1593586679.768,8208
10733541,1593586679.77,8208
10733542,1593586679.772,8207
10733543,1593586679.774,8207
10733544,1593586679.776,8206
10733545,1593586679.778,8205
10733546,1593586679.78,8205
10733547,1593586679.782,8205
10733548,1593586679.784,8205
10733549,1593586679.786,8205
10733550,1593586679.788,8206
10733551,1593586679.79,8206
10733552,1593586679.792,8205
10733553,1593586679.794,8205
10733554,1593586679.796,8205
10733555,1593586679.798,8205
10733556,1593586679.8,8204
10733557,1593586679.802,8204
10733558,1593586679.804,8203
10733559,1593586679.806,8203
10733560,1593586679.808,8202
10733561,1593586679.81,8202
10733562,1593586679.812,8202
10733563,1593586679.814,8202
10733564,1593586679.816,8202
10733565,1593586679.818,8202
10733566,1593586679.82,8202
10733567,1593586679.822,8202
10733568,1593586679.824,8201
10733569,1593586679.826,8200
10733570,1593586679.828,8200
10733571,1593586679.83,8199
10733572,1593586679.832,8199
10733573,1593586679.834,8200
10733574,1593586679.836,8200
10733575,1593586679.838,8201
10733576,1593586679.84,8201
10733577,1593586679.842,8202
10733578,1593586679.844,8202
10733579,1593586679.846,8203
10733580,1593586679.848,8204
10733581,1593586679.85,8204
10733582,1593586679.852,8205
10733583,1593586679.854,8206
10733584,1593586679.856,8207
10733585,1593586679.858,8207
10733586,1593586679.86,8207
10733587,1593586679.862,8207
10733588,1593586679.864,8207
10733589,1593586679.866,8207
10733590,1593586679.868,8207
10733591,1593586679.87,8207
10733592,1593586679.872,8208
10733593,1593586679.874,8209
10733594,1593586679.876,8210
10733595,1593586679.878,8211
10733596,1593586679.88,8211
10733597,1593586679.882,8212
10733598,1593586679.884,8212
10733599,1593586679.886,8212
10733600,1593586679.888,8212
10733601,1593586679.89,8213
10733602,1593586679.892,8213
10733603,1593586679.894,8213
10733604,1593586679.896,8211
10733605,1593586679.898,8207
10733606,1593586679.9,8203
10733607,1593586679.902,8201
10733608,1593586679.904,8200
10733609,1593586679.906,8198
10733610,1593586679.908,8196
10733611,1593586679.91,8194
10733612,1593586679.912,8192
10733613,1593586679.914,8191
10733614,1593586679.916,8191
10733615,1593586679.918,8193
10733616,1593586679.92,8196
10733617,1593586679.922,8198
10733618,1593586679.924,8200
10733619,1593586679.926,8201
10733620,1593586679.928,8203
10733621,1593586679.93,8204
10733622,1593586679.932,8205
10733623,1593586679.934,8205
10733624,1593586679.936,8204
10733625,1593586679.938,8203
10733626,1593586679.94,8202
10733627,1593586679.942,8201
10733628,1593586679.944,8200
10733629,1593586679.946,8198
10733630,1593586679.948,8197
10733631,1593586679.95,8196
10733632,1593586679.952,8194
10733633,1593586679.954,8193
10733634,1593586679.956,8191
10733635,1593586679.958,8190
10733636,1593586679.96,8190
10733637,1593586679.962,8190
10733638,1593586679.964,8190
10733639,1593586679.966,8190
10733640,1593586679.968,8190
10733641,1593586679.97,8190
10733642,1593586679.972,8189
10733643,1593586679.974,8189
10733644,1593586679.976,8188
10733645,1593586679.978,8186
10733646,1593586679.98,8184
10733647,1593586679.982,8183
10733648,1593586679.984,8183
10733649,1593586679.986,8186
10733650,1593586679.988,8192
10733651,1593586679.99,8200
10733652,1593586679.992,8206
10733653,1593586679.994,8212
10733654,1593586679.996,8236
10733655,1593586679.998,8297
10733656,1593586680.0,8364
10733657,1593586680.002,8396
10733658,1593586680.004,8389
10733659,1593586680.006,8357
10733660,1593586680.008,8322
10733661,1593586680.01,8291
10733662,1593586680.012,8269
10733663,1593586680.014,8256
10733664,1593586680.016,8250
10733665,1593586680.018,8247
10733666,1593586680.02,8247
10733667,1593586680.022,8246
10733668,1593586680.024,8244
10733669,1593586680.026,8241
10733670,1593586680.028,8237
10733671,1593586680.03,8233
10733672,1593586680.032,8229
10733673,1593586680.034,8225
10733674,1593586680.036,8221
10733675,1593586680.038,8219
10733676,1593586680.04,8218
10733677,1593586680.042,8217
10733678,1593586680.044,8218
10733679,1593586680.046,8218
10733680,1593586680.048,8219
10733681,1593586680.05,8218
10733682,1593586680.052,8218
10733683,1593586680.054,8218
10733684,1593586680.056,8218
10733685,1593586680.058,8218
10733686,1593586680.06,8219
10733687,1593586680.062,8220
10733688,1593586680.064,8221
10733689,1593586680.066,8222
10733690,1593586680.068,8223
10733691,1593586680.07,8225
10733692,1593586680.072,8226
10733693,1593586680.074,8227
10733694,1593586680.076,8228
10733695,1593586680.078,8229
10733696,1593586680.08,8231
10733697,1593586680.082,8232
10733698,1593586680.084,8233
10733699,1593586680.086,8234
10733700,1593586680.088,8236
10733701,1593586680.09,8238
10733702,1593586680.092,8240
10733703,1593586680.094,8241
10733704,1593586680.096,8242
10733705,1593586680.098,8243
10733706,1593586680.1,8243
10733707,1593586680.102,8244
10733708,1593586680.104,8245
10733709,1593586680.106,8245
10733710,1593586680.108,8245
10733711,1593586680.11,8246
10733712,1593586680.112,8247
10733713,1593586680.114,8247
10733714,1593586680.116,8248
10733715,1593586680.118,8249
10733716,1593586680.12,8249
10733717,1593586680.122,8250
10733718,1593586680.124,8250
10733719,1593586680.126,8251
10733720,1593586680.128,8252
10733721,1593586680.13,8253
10733722,1593586680.132,8255
10733723,1593586680.134,8259
10733724,1593586680.136,8265
10733725,1593586680.138,8274
10733726,1593586680.14,8287
10733727,1593586680.142,8305
10733728,1593586680.144,8328
10733729,1593586680.146,8356
10733730,1593586680.148,8386
10733731,1593586680.15,8417
10733732,1593586680.152,8445
10733733,1593586680.154,8467
10733734,1593586680.156,8478
10733735,1593586680.158,8478
10733736,1593586680.16,8467
10733737,1593586680.162,8443
10733738,1593586680.164,8407
10733739,1593586680.166,8361
10733740,1593586680.168,8313
10733741,1593586680.17,8265
10733742,1593586680.172,8221
10733743,1593586680.174,8185
10733744,1593586680.176,8161
10733745,1593586680.178,8144
10733746,1593586680.18,8125
10733747,1593586680.182,8099
10733748,1593586680.184,8064
10733749,1593586680.186,8023
10733750,1593586680.188,7984
10733751,1593586680.19,7951
10733752,1593586680.192,7931
10733753,1593586680.194,7929
10733754,1593586680.196,7943
10733755,1593586680.198,7969
10733756,1593586680.2,8002
10733757,1593586680.202,8039
10733758,1593586680.204,8079
10733759,1593586680.206,8120
10733760,1593586680.208,8162
10733761,1593586680.21,8199
10733762,1593586680.212,8228
10733763,1593586680.214,8247
10733764,1593586680.216,8259
10733765,1593586680.218,8266
10733766,1593586680.22,8270
10733767,1593586680.222,8272
10733768,1593586680.224,8272
10733769,1593586680.226,8272
10733770,1593586680.228,8271
10733771,1593586680.23,8271
10733772,1593586680.232,8271
10733773,1593586680.234,8271
10733774,1593586680.236,8271
10733775,1593586680.238,8271
10733776,1593586680.24,8270
10733777,1593586680.242,8270
10733778,1593586680.244,8269
10733779,1593586680.246,8269
10733780,1593586680.248,8268
10733781,1593586680.25,8268
10733782,1593586680.252,8267
10733783,1593586680.254,8267
10733784,1593586680.256,8267
10733785,1593586680.258,8267
10733786,1593586680.26,8266
10733787,1593586680.262,8266
10733788,1593586680.264,8266
10733789,1593586680.266,8266
10733790,1593586680.268,8266
10733791,1593586680.27,8266
10733792,1593586680.272,8265
10733793,1593586680.274,8265
10733794,1593586680.276,8264
10733795,1593586680.278,8264
10733796,1593586680.28,8263
10733797,1593586680.282,8263
10733798,1593586680.284,8263
10733799,1593586680.286,8263
10733800,1593586680.288,8263
10733801,1593586680.29,8262
10733802,1593586680.292,8262
10733803,1593586680.294,8261
10733804,1593586680.296,8261
10733805,1593586680.298,8261
10733806,1593586680.3,8260
10733807,1593586680.302,8260
10733808,1593586680.304,8260
10733809,1593586680.306,8259
10733810,1593586680.308,8259
10733811,1593586680.31,8258
10733812,1593586680.312,8258
10733813,1593586680.314,8257
10733814,1593586680.316,8257
10733815,1593586680.318,8257
10733816,1593586680.32,8256
10733817,1593586680.322,8256
10733818,1593586680.324,8255
10733819,1593586680.326,8254
10733820,1593586680.328,8254
10733821,1593586680.33,8253
10733822,1593586680.332,8253
10733823,1593586680.334,8253
10733824,1593586680.336,8253
10733825,1593586680.338,8252
10733826,1593586680.34,8252
10733827,1593586680.342,8251
10733828,1593586680.344,8250
10733829,1593586680.346,8250
10733830,1593586680.348,8250
10733831,1593586680.35,8249
10733832,1593586680.352,8249
10733833,1593586680.354,8249
10733834,1593586680.356,8249
10733835,1593586680.358,8248
10733836,1593586680.36,8248
10733837,1593586680.362,8247
10733838,1593586680.364,8247
10733839,1593586680.366,8247
10733840,1593586680.368,8247
10733841,1593586680.37,8246
10733842,1593586680.372,8246
10733843,1593586680.374,8245
10733844,1593586680.376,8245
10733845,1593586680.378,8245
10733846,1593586680.38,8244
10733847,1593586680.382,8244
10733848,1593586680.384,8244
10733849,1593586680.386,8244
10733850,1593586680.388,8244
10733851,1593586680.39,8244
10733852,1593586680.392,8244
10733853,1593586680.394,8243
10733854,1593586680.396,8243
10733855,1593586680.398,8244
10733856,1593586680.4,8244
10733857,1593586680.402,8245
10733858,1593586680.404,8245
10733859,1593586680.406,8245
10733860,1593586680.408,8245
10733861,1593586680.41,8245
10733862,1593586680.412,8245
10733863,1593586680.414,8245
10733864,1593586680.416,8246
10733865,1593586680.418,8246
10733866,1593586680.42,8246
10733867,1593586680.422,8247
10733868,1593586680.424,8247
10733869,1593586680.426,8247
10733870,1593586680.428,8247
10733871,1593586680.43,8248
10733872,1593586680.432,8248
10733873,1593586680.434,8249
10733874,1593586680.436,8249
10733875,1593586680.438,8250
10733876,1593586680.44,8250
10733877,1593586680.442,8250
10733878,1593586680.444,8250
10733879,1593586680.446,8250
10733880,1593586680.448,8251
10733881,1593586680.45,8253
10733882,1593586680.452,8254
10733883,1593586680.454,8255
10733884,1593586680.456,8257
10733885,1593586680.458,8258
10733886,1593586680.46,8259
10733887,1593586680.462,8259
10733888,1593586680.464,8260
10733889,1593586680.466,8262
10733890,1593586680.468,8263
10733891,1593586680.47,8265
10733892,1593586680.472,8266
10733893,1593586680.474,8267
10733894,1593586680.476,8268
10733895,1593586680.478,8269
10733896,1593586680.48,8271
10733897,1593586680.482,8273
10733898,1593586680.484,8274
10733899,1593586680.486,8276
10733900,1593586680.488,8277
10733901,1593586680.49,8278
10733902,1593586680.492,8280
10733903,1593586680.494,8281
10733904,1593586680.496,8282
10733905,1593586680.498,8284
10733906,1593586680.5,8285
10733907,1593586680.502,8287
10733908,1593586680.504,8289
10733909,1593586680.506,8290
10733910,1593586680.508,8290
10733911,1593586680.51,8291
10733912,1593586680.512,8292
10733913,1593586680.514,8294
10733914,1593586680.516,8295
10733915,1593586680.518,8296
10733916,1593586680.52,8297
10733917,1593586680.522,8298
10733918,1593586680.524,8299
10733919,1593586680.526,8299
10733920,1593586680.528,8299
10733921,1593586680.53,8299
10733922,1593586680.532,8299
10733923,1593586680.534,8299
10733924,1593586680.536,8299
10733925,1593586680.538,8298
10733926,1593586680.54,8298
10733927,1593586680.542,8297
10733928,1593586680.544,8296
10733929,1593586680.546,8295
10733930,1593586680.548,8294
10733931,1593586680.55,8293
10733932,1593586680.552,8292
10733933,1593586680.554,8291
10733934,1593586680.556,8289
10733935,1593586680.558,8287
10733936,1593586680.56,8285
10733937,1593586680.562,8284
10733938,1593586680.564,8282
10733939,1593586680.566,8281
10733940,1593586680.568,8280
10733941,1593586680.57,8278
10733942,1593586680.572,8276
10733943,1593586680.574,8273
10733944,1593586680.576,8272
10733945,1593586680.578,8270
10733946,1593586680.58,8269
10733947,1593586680.582,8268
10733948,1593586680.584,8266
10733949,1593586680.586,8265
10733950,1593586680.588,8265
10733951,1593586680.59,8265
10733952,1593586680.592,8265
10733953,1593586680.594,8265
10733954,1593586680.596,8265
10733955,1593586680.598,8265
10733956,1593586680.6,8264
10733957,1593586680.602,8264
10733958,1593586680.604,8263
10733959,1593586680.606,8261
10733960,1593586680.608,8258
10733961,1593586680.61,8254
10733962,1593586680.612,8252
10733963,1593586680.614,8252
10733964,1593586680.616,8255
10733965,1593586680.618,8260
10733966,1593586680.62,8265
10733967,1593586680.622,8270
10733968,1593586680.624,8274
10733969,1593586680.626,8275
10733970,1593586680.628,8274
10733971,1593586680.63,8273
10733972,1593586680.632,8272
10733973,1593586680.634,8270
10733974,1593586680.636,8269
10733975,1593586680.638,8267
10733976,1593586680.64,8266
10733977,1593586680.642,8264
10733978,1593586680.644,8262
10733979,1593586680.646,8261
10733980,1593586680.648,8259
10733981,1593586680.65,8257
10733982,1593586680.652,8255
10733983,1593586680.654,8253
10733984,1593586680.656,8250
10733985,1593586680.658,8246
10733986,1593586680.66,8242
10733987,1593586680.662,8239
10733988,1593586680.664,8236
10733989,1593586680.666,8234
10733990,1593586680.668,8233
10733991,1593586680.67,8233
10733992,1593586680.672,8233
10733993,1593586680.674,8232
10733994,1593586680.676,8232
10733995,1593586680.678,8231
10733996,1593586680.68,8231
10733997,1593586680.682,8231
10733998,1593586680.684,8231
10733999,1593586680.686,8232
10734000,1593586680.688,8232
10734001,1593586680.69,8232
10734002,1593586680.692,8232
10734003,1593586680.694,8232
10734004,1593586680.696,8232
10734005,1593586680.698,8232
10734006,1593586680.7,8232
10734007,1593586680.702,8232
10734008,1593586680.704,8232
10734009,1593586680.706,8231
10734010,1593586680.708,8231
10734011,1593586680.71,8231
10734012,1593586680.712,8231
10734013,1593586680.714,8230
10734014,1593586680.716,8230
10734015,1593586680.718,8230
10734016,1593586680.72,8230
10734017,1593586680.722,8230
10734018,1593586680.724,8230
10734019,1593586680.726,8230
10734020,1593586680.728,8230
10734021,1593586680.73,8230
10734022,1593586680.732,8230
10734023,1593586680.734,8230
10734024,1593586680.736,8230
10734025,1593586680.738,8230
10734026,1593586680.74,8230
10734027,1593586680.742,8230
10734028,1593586680.744,8230
