,times,values
880000,1649024962.912,8325
880001,1649024962.914,8327
880002,1649024962.916,8330
880003,1649024962.918,8333
880004,1649024962.92,8335
880005,1649024962.922,8338
880006,1649024962.924,8341
880007,1649024962.926,8343
880008,1649024962.928,8345
880009,1649024962.93,8347
880010,1649024962.932,8348
880011,1649024962.934,8350
880012,1649024962.936,8351
880013,1649024962.938,8352
880014,1649024962.94,8354
880015,1649024962.942,8355
880016,1649024962.944,8356
880017,1649024962.946,8357
880018,1649024962.948,8358
880019,1649024962.95,8360
880020,1649024962.952,8360
880021,1649024962.954,8360
880022,1649024962.956,8360
880023,1649024962.958,8359
880024,1649024962.96,8359
880025,1649024962.962,8358
880026,1649024962.964,8358
880027,1649024962.966,8357
880028,1649024962.968,8356
880029,1649024962.97,8356
880030,1649024962.972,8356
880031,1649024962.974,8355
880032,1649024962.976,8355
880033,1649024962.978,8354
880034,1649024962.98,8354
880035,1649024962.982,8353
880036,1649024962.984,8351
880037,1649024962.986,8350
880038,1649024962.988,8349
880039,1649024962.99,8348
880040,1649024962.992,8347
880041,1649024962.994,8346
880042,1649024962.996,8345
880043,1649024962.998,8343
880044,1649024963.0,8342
880045,1649024963.002,8340
880046,1649024963.004,8339
880047,1649024963.006,8338
880048,1649024963.008,8337
880049,1649024963.01,8337
880050,1649024963.012,8337
880051,1649024963.014,8336
880052,1649024963.016,8336
880053,1649024963.018,8335
880054,1649024963.02,8334
880055,1649024963.022,8333
880056,1649024963.024,8333
880057,1649024963.026,8333
880058,1649024963.028,8333
880059,1649024963.03,8332
880060,1649024963.032,8332
880061,1649024963.034,8331
880062,1649024963.036,8331
880063,1649024963.038,8330
880064,1649024963.04,8330
880065,1649024963.042,8330
880066,1649024963.044,8329
880067,1649024963.046,8329
880068,1649024963.048,8328
880069,1649024963.05,8328
880070,1649024963.052,8328
880071,1649024963.054,8327
880072,1649024963.056,8327
880073,1649024963.058,8327
880074,1649024963.06,8328
880075,1649024963.062,8328
880076,1649024963.064,8329
880077,1649024963.066,8329
880078,1649024963.068,8328
880079,1649024963.07,8328
880080,1649024963.072,8327
880081,1649024963.074,8327
880082,1649024963.076,8327
880083,1649024963.078,8326
880084,1649024963.08,8326
880085,1649024963.082,8325
880086,1649024963.084,8324
880087,1649024963.086,8323
880088,1649024963.088,8322
880089,1649024963.09,8321
880090,1649024963.092,8320
880091,1649024963.094,8319
880092,1649024963.096,8319
880093,1649024963.098,8318
880094,1649024963.1,8317
880095,1649024963.102,8317
880096,1649024963.104,8316
880097,1649024963.106,8316
880098,1649024963.108,8316
880099,1649024963.11,8316
880100,1649024963.112,8315
880101,1649024963.114,8315
880102,1649024963.116,8314
880103,1649024963.118,8314
880104,1649024963.12,8313
880105,1649024963.122,8313
880106,1649024963.124,8312
880107,1649024963.126,8312
880108,1649024963.128,8312
880109,1649024963.13,8312
880110,1649024963.132,8312
880111,1649024963.134,8312
880112,1649024963.136,8312
880113,1649024963.138,8312
880114,1649024963.14,8312
880115,1649024963.142,8311
880116,1649024963.144,8310
880117,1649024963.146,8310
880118,1649024963.148,8309
880119,1649024963.15,8309
880120,1649024963.152,8308
880121,1649024963.154,8307
880122,1649024963.156,8306
880123,1649024963.158,8305
880124,1649024963.16,8304
880125,1649024963.162,8302
880126,1649024963.164,8301
880127,1649024963.166,8299
880128,1649024963.168,8297
880129,1649024963.17,8295
880130,1649024963.172,8293
880131,1649024963.174,8291
880132,1649024963.176,8289
880133,1649024963.178,8287
880134,1649024963.18,8285
880135,1649024963.182,8283
880136,1649024963.184,8281
880137,1649024963.186,8280
880138,1649024963.188,8278
880139,1649024963.19,8276
880140,1649024963.192,8274
880141,1649024963.194,8271
880142,1649024963.196,8268
880143,1649024963.198,8265
880144,1649024963.2,8262
880145,1649024963.202,8259
880146,1649024963.204,8256
880147,1649024963.206,8253
880148,1649024963.208,8250
880149,1649024963.21,8247
880150,1649024963.212,8244
880151,1649024963.214,8241
880152,1649024963.216,8237
880153,1649024963.218,8234
880154,1649024963.22,8231
880155,1649024963.222,8228
880156,1649024963.224,8225
880157,1649024963.226,8222
880158,1649024963.228,8218
880159,1649024963.23,8215
880160,1649024963.232,8212
880161,1649024963.234,8209
880162,1649024963.236,8206
880163,1649024963.238,8203
880164,1649024963.24,8200
880165,1649024963.242,8197
880166,1649024963.244,8193
880167,1649024963.246,8190
880168,1649024963.248,8186
880169,1649024963.25,8183
880170,1649024963.252,8180
880171,1649024963.254,8177
880172,1649024963.256,8174
880173,1649024963.258,8172
880174,1649024963.26,8169
880175,1649024963.262,8167
880176,1649024963.264,8164
880177,1649024963.266,8162
880178,1649024963.268,8160
880179,1649024963.27,8157
880180,1649024963.272,8156
880181,1649024963.274,8154
880182,1649024963.276,8152
880183,1649024963.278,8150
880184,1649024963.28,8148
880185,1649024963.282,8146
880186,1649024963.284,8145
880187,1649024963.286,8143
880188,1649024963.288,8142
880189,1649024963.29,8141
880190,1649024963.292,8140
880191,1649024963.294,8139
880192,1649024963.296,8138
880193,1649024963.298,8138
880194,1649024963.3,8137
880195,1649024963.302,8136
880196,1649024963.304,8135
880197,1649024963.306,8134
880198,1649024963.308,8133
880199,1649024963.31,8132
880200,1649024963.312,8131
880201,1649024963.314,8130
880202,1649024963.316,8128
880203,1649024963.318,8127
880204,1649024963.32,8125
880205,1649024963.322,8124
880206,1649024963.324,8122
880207,1649024963.326,8121
880208,1649024963.328,8119
880209,1649024963.33,8117
880210,1649024963.332,8115
880211,1649024963.334,8113
880212,1649024963.336,8111
880213,1649024963.338,8109
880214,1649024963.34,8108
880215,1649024963.342,8107
880216,1649024963.344,8105
880217,1649024963.346,8104
880218,1649024963.348,8102
880219,1649024963.35,8100
880220,1649024963.352,8098
880221,1649024963.354,8097
880222,1649024963.356,8095
880223,1649024963.358,8093
880224,1649024963.36,8091
880225,1649024963.362,8089
880226,1649024963.364,8087
880227,1649024963.366,8085
880228,1649024963.368,8083
880229,1649024963.37,8082
880230,1649024963.372,8080
880231,1649024963.374,8078
880232,1649024963.376,8077
880233,1649024963.378,8075
880234,1649024963.38,8074
880235,1649024963.382,8073
880236,1649024963.384,8072
880237,1649024963.386,8071
880238,1649024963.388,8069
880239,1649024963.39,8068
880240,1649024963.392,8067
880241,1649024963.394,8066
880242,1649024963.396,8065
880243,1649024963.398,8063
880244,1649024963.4,8062
880245,1649024963.402,8060
880246,1649024963.404,8059
880247,1649024963.406,8057
880248,1649024963.408,8056
880249,1649024963.41,8055
880250,1649024963.412,8054
880251,1649024963.414,8053
880252,1649024963.416,8052
880253,1649024963.418,8051
880254,1649024963.42,8050
880255,1649024963.422,8049
880256,1649024963.424,8048
880257,1649024963.426,8047
880258,1649024963.428,8047
880259,1649024963.43,8046
880260,1649024963.432,8045
880261,1649024963.434,8044
880262,1649024963.436,8044
880263,1649024963.438,8043
880264,1649024963.44,8042
880265,1649024963.442,8041
880266,1649024963.444,8041
880267,1649024963.446,8041
880268,1649024963.448,8041
880269,1649024963.45,8041
880270,1649024963.452,8040
880271,1649024963.454,8040
880272,1649024963.456,8040
880273,1649024963.458,8040
880274,1649024963.46,8039
880275,1649024963.462,8039
880276,1649024963.464,8039
880277,1649024963.466,8039
880278,1649024963.468,8039
880279,1649024963.47,8039
880280,1649024963.472,8039
880281,1649024963.474,8039
880282,1649024963.476,8039
880283,1649024963.478,8038
880284,1649024963.48,8038
880285,1649024963.482,8037
880286,1649024963.484,8037
880287,1649024963.486,8037
880288,1649024963.488,8037
880289,1649024963.49,8038
880290,1649024963.492,8038
880291,1649024963.494,8039
880292,1649024963.496,8040
880293,1649024963.498,8041
880294,1649024963.5,8042
880295,1649024963.502,8043
880296,1649024963.504,8044
880297,1649024963.506,8045
880298,1649024963.508,8047
880299,1649024963.51,8048
880300,1649024963.512,8050
880301,1649024963.514,8051
880302,1649024963.516,8052
880303,1649024963.518,8052
880304,1649024963.52,8053
880305,1649024963.522,8054
880306,1649024963.524,8056
880307,1649024963.526,8057
880308,1649024963.528,8058
880309,1649024963.53,8059
880310,1649024963.532,8059
880311,1649024963.534,8060
880312,1649024963.536,8061
880313,1649024963.538,8062
880314,1649024963.54,8062
880315,1649024963.542,8063
880316,1649024963.544,8064
880317,1649024963.546,8064
880318,1649024963.548,8065
880319,1649024963.55,8065
880320,1649024963.552,8065
880321,1649024963.554,8065
880322,1649024963.556,8066
880323,1649024963.558,8067
880324,1649024963.56,8068
880325,1649024963.562,8068
880326,1649024963.564,8069
880327,1649024963.566,8069
880328,1649024963.568,8069
880329,1649024963.57,8069
880330,1649024963.572,8069
880331,1649024963.574,8069
880332,1649024963.576,8070
880333,1649024963.578,8070
880334,1649024963.58,8070
880335,1649024963.582,8071
880336,1649024963.584,8071
880337,1649024963.586,8071
880338,1649024963.588,8071
880339,1649024963.59,8071
880340,1649024963.592,8071
880341,1649024963.594,8071
880342,1649024963.596,8071
880343,1649024963.598,8071
880344,1649024963.6,8071
880345,1649024963.602,8072
880346,1649024963.604,8072
880347,1649024963.606,8073
880348,1649024963.608,8074
880349,1649024963.61,8074
880350,1649024963.612,8074
880351,1649024963.614,8074
880352,1649024963.616,8074
880353,1649024963.618,8074
880354,1649024963.62,8075
880355,1649024963.622,8076
880356,1649024963.624,8076
880357,1649024963.626,8077
880358,1649024963.628,8077
880359,1649024963.63,8077
880360,1649024963.632,8077
880361,1649024963.634,8078
880362,1649024963.636,8078
880363,1649024963.638,8079
880364,1649024963.64,8080
880365,1649024963.642,8080
880366,1649024963.644,8081
880367,1649024963.646,8082
880368,1649024963.648,8082
880369,1649024963.65,8083
880370,1649024963.652,8084
880371,1649024963.654,8085
880372,1649024963.656,8086
880373,1649024963.658,8087
880374,1649024963.66,8088
880375,1649024963.662,8089
880376,1649024963.664,8089
880377,1649024963.666,8090
880378,1649024963.668,8090
880379,1649024963.67,8090
880380,1649024963.672,8091
880381,1649024963.674,8091
880382,1649024963.676,8091
880383,1649024963.678,8091
880384,1649024963.68,8091
880385,1649024963.682,8090
880386,1649024963.684,8089
880387,1649024963.686,8088
880388,1649024963.688,8088
880389,1649024963.69,8087
880390,1649024963.692,8087
880391,1649024963.694,8087
880392,1649024963.696,8087
880393,1649024963.698,8087
880394,1649024963.7,8087
880395,1649024963.702,8086
880396,1649024963.704,8086
880397,1649024963.706,8085
880398,1649024963.708,8085
880399,1649024963.71,8084
880400,1649024963.712,8084
880401,1649024963.714,8084
880402,1649024963.716,8083
880403,1649024963.718,8083
880404,1649024963.72,8082
880405,1649024963.722,8082
880406,1649024963.724,8082
880407,1649024963.726,8081
880408,1649024963.728,8081
880409,1649024963.73,8080
880410,1649024963.732,8080
880411,1649024963.734,8079
880412,1649024963.736,8078
880413,1649024963.738,8077
880414,1649024963.74,8076
880415,1649024963.742,8076
880416,1649024963.744,8075
880417,1649024963.746,8075
880418,1649024963.748,8075
880419,1649024963.75,8075
880420,1649024963.752,8074
880421,1649024963.754,8074
880422,1649024963.756,8074
880423,1649024963.758,8074
880424,1649024963.76,8074
880425,1649024963.762,8074
880426,1649024963.764,8074
880427,1649024963.766,8074
880428,1649024963.768,8073
880429,1649024963.77,8073
880430,1649024963.772,8073
880431,1649024963.774,8073
880432,1649024963.776,8073
880433,1649024963.778,8072
880434,1649024963.78,8072
880435,1649024963.782,8073
880436,1649024963.784,8073
880437,1649024963.786,8074
880438,1649024963.788,8075
880439,1649024963.79,8076
880440,1649024963.792,8076
880441,1649024963.794,8076
880442,1649024963.796,8077
880443,1649024963.798,8077
880444,1649024963.8,8077
880445,1649024963.802,8077
880446,1649024963.804,8078
880447,1649024963.806,8078
880448,1649024963.808,8078
880449,1649024963.81,8077
880450,1649024963.812,8077
880451,1649024963.814,8077
880452,1649024963.816,8076
880453,1649024963.818,8075
880454,1649024963.82,8075
880455,1649024963.822,8074
880456,1649024963.824,8074
880457,1649024963.826,8073
880458,1649024963.828,8073
880459,1649024963.83,8073
880460,1649024963.832,8073
880461,1649024963.834,8072
880462,1649024963.836,8073
880463,1649024963.838,8073
880464,1649024963.84,8074
880465,1649024963.842,8074
880466,1649024963.844,8076
880467,1649024963.846,8077
880468,1649024963.848,8078
880469,1649024963.85,8079
880470,1649024963.852,8080
880471,1649024963.854,8080
880472,1649024963.856,8081
880473,1649024963.858,8082
880474,1649024963.86,8084
880475,1649024963.862,8085
880476,1649024963.864,8086
880477,1649024963.866,8087
880478,1649024963.868,8088
880479,1649024963.87,8090
880480,1649024963.872,8091
880481,1649024963.874,8093
880482,1649024963.876,8095
880483,1649024963.878,8096
880484,1649024963.88,8097
880485,1649024963.882,8098
880486,1649024963.884,8099
880487,1649024963.886,8101
880488,1649024963.888,8102
880489,1649024963.89,8103
880490,1649024963.892,8104
880491,1649024963.894,8105
880492,1649024963.896,8106
880493,1649024963.898,8106
880494,1649024963.9,8107
880495,1649024963.902,8108
880496,1649024963.904,8109
880497,1649024963.906,8110
880498,1649024963.908,8111
880499,1649024963.91,8112
880500,1649024963.912,8114
880501,1649024963.914,8114
880502,1649024963.916,8115
880503,1649024963.918,8116
880504,1649024963.92,8116
880505,1649024963.922,8116
880506,1649024963.924,8116
880507,1649024963.926,8116
880508,1649024963.928,8116
880509,1649024963.93,8116
880510,1649024963.932,8115
880511,1649024963.934,8115
880512,1649024963.936,8115
880513,1649024963.938,8115
880514,1649024963.94,8115
880515,1649024963.942,8115
880516,1649024963.944,8116
880517,1649024963.946,8116
880518,1649024963.948,8117
880519,1649024963.95,8118
880520,1649024963.952,8119
880521,1649024963.954,8120
880522,1649024963.956,8121
880523,1649024963.958,8123
880524,1649024963.96,8124
880525,1649024963.962,8126
880526,1649024963.964,8127
880527,1649024963.966,8129
880528,1649024963.968,8131
880529,1649024963.97,8132
880530,1649024963.972,8134
880531,1649024963.974,8135
880532,1649024963.976,8137
880533,1649024963.978,8139
880534,1649024963.98,8141
880535,1649024963.982,8142
880536,1649024963.984,8144
880537,1649024963.986,8146
880538,1649024963.988,8147
880539,1649024963.99,8149
880540,1649024963.992,8151
880541,1649024963.994,8152
880542,1649024963.996,8154
880543,1649024963.998,8155
880544,1649024964.0,8156
880545,1649024964.002,8158
880546,1649024964.004,8160
880547,1649024964.006,8161
880548,1649024964.008,8163
880549,1649024964.01,8165
880550,1649024964.012,8167
880551,1649024964.014,8168
880552,1649024964.016,8170
880553,1649024964.018,8172
880554,1649024964.02,8174
880555,1649024964.022,8175
880556,1649024964.024,8177
880557,1649024964.026,8178
880558,1649024964.028,8180
880559,1649024964.03,8181
880560,1649024964.032,8183
880561,1649024964.034,8184
880562,1649024964.036,8185
880563,1649024964.038,8186
880564,1649024964.04,8188
880565,1649024964.042,8189
880566,1649024964.044,8190
880567,1649024964.046,8191
880568,1649024964.048,8192
880569,1649024964.05,8193
880570,1649024964.052,8194
880571,1649024964.054,8196
880572,1649024964.056,8197
880573,1649024964.058,8198
880574,1649024964.06,8199
880575,1649024964.062,8201
880576,1649024964.064,8202
880577,1649024964.066,8204
880578,1649024964.068,8205
880579,1649024964.07,8207
880580,1649024964.072,8208
880581,1649024964.074,8210
880582,1649024964.076,8212
880583,1649024964.078,8214
880584,1649024964.08,8215
880585,1649024964.082,8217
880586,1649024964.084,8218
880587,1649024964.086,8219
880588,1649024964.088,8220
880589,1649024964.09,8221
880590,1649024964.092,8222
880591,1649024964.094,8223
880592,1649024964.096,8225
880593,1649024964.098,8226
880594,1649024964.1,8227
880595,1649024964.102,8228
880596,1649024964.104,8230
880597,1649024964.106,8231
880598,1649024964.108,8232
880599,1649024964.11,8234
880600,1649024964.112,8235
880601,1649024964.114,8236
880602,1649024964.116,8238
880603,1649024964.118,8239
880604,1649024964.12,8241
880605,1649024964.122,8242
880606,1649024964.124,8243
880607,1649024964.126,8244
880608,1649024964.128,8245
880609,1649024964.13,8246
880610,1649024964.132,8247
880611,1649024964.134,8249
880612,1649024964.136,8250
880613,1649024964.138,8252
880614,1649024964.14,8254
880615,1649024964.142,8256
880616,1649024964.144,8257
880617,1649024964.146,8259
880618,1649024964.148,8260
880619,1649024964.15,8260
880620,1649024964.152,8261
880621,1649024964.154,8262
880622,1649024964.156,8263
880623,1649024964.158,8264
880624,1649024964.16,8264
880625,1649024964.162,8265
880626,1649024964.164,8264
880627,1649024964.166,8264
880628,1649024964.168,8263
880629,1649024964.17,8263
880630,1649024964.172,8263
880631,1649024964.174,8262
880632,1649024964.176,8262
880633,1649024964.178,8261
880634,1649024964.18,8260
880635,1649024964.182,8259
880636,1649024964.184,8258
880637,1649024964.186,8257
880638,1649024964.188,8258
880639,1649024964.19,8258
880640,1649024964.192,8258
880641,1649024964.194,8258
880642,1649024964.196,8257
880643,1649024964.198,8257
880644,1649024964.2,8256
880645,1649024964.202,8256
880646,1649024964.204,8256
880647,1649024964.206,8256
880648,1649024964.208,8256
880649,1649024964.21,8255
880650,1649024964.212,8255
880651,1649024964.214,8255
880652,1649024964.216,8255
880653,1649024964.218,8256
880654,1649024964.22,8257
880655,1649024964.222,8259
880656,1649024964.224,8260
880657,1649024964.226,8262
880658,1649024964.228,8263
880659,1649024964.23,8265
880660,1649024964.232,8266
880661,1649024964.234,8268
880662,1649024964.236,8269
880663,1649024964.238,8270
880664,1649024964.24,8272
880665,1649024964.242,8273
880666,1649024964.244,8274
880667,1649024964.246,8275
880668,1649024964.248,8276
880669,1649024964.25,8277
880670,1649024964.252,8278
880671,1649024964.254,8280
880672,1649024964.256,8282
880673,1649024964.258,8284
880674,1649024964.26,8286
880675,1649024964.262,8288
880676,1649024964.264,8290
880677,1649024964.266,8291
880678,1649024964.268,8293
880679,1649024964.27,8295
880680,1649024964.272,8296
880681,1649024964.274,8297
880682,1649024964.276,8299
880683,1649024964.278,8300
880684,1649024964.28,8302
880685,1649024964.282,8303
880686,1649024964.284,8305
880687,1649024964.286,8306
880688,1649024964.288,8308
880689,1649024964.29,8309
880690,1649024964.292,8310
880691,1649024964.294,8312
880692,1649024964.296,8313
880693,1649024964.298,8313
880694,1649024964.3,8314
880695,1649024964.302,8314
880696,1649024964.304,8314
880697,1649024964.306,8315
880698,1649024964.308,8316
880699,1649024964.31,8317
880700,1649024964.312,8318
880701,1649024964.314,8318
880702,1649024964.316,8319
880703,1649024964.318,8318
880704,1649024964.32,8318
880705,1649024964.322,8318
880706,1649024964.324,8319
880707,1649024964.326,8319
880708,1649024964.328,8318
880709,1649024964.33,8318
880710,1649024964.332,8318
880711,1649024964.334,8319
880712,1649024964.336,8319
880713,1649024964.338,8319
880714,1649024964.34,8319
880715,1649024964.342,8319
880716,1649024964.344,8320
880717,1649024964.346,8320
880718,1649024964.348,8321
880719,1649024964.35,8320
880720,1649024964.352,8320
880721,1649024964.354,8320
880722,1649024964.356,8321
880723,1649024964.358,8321
880724,1649024964.36,8322
880725,1649024964.362,8322
880726,1649024964.364,8322
880727,1649024964.366,8323
880728,1649024964.368,8323
880729,1649024964.37,8322
880730,1649024964.372,8323
880731,1649024964.374,8323
880732,1649024964.376,8324
880733,1649024964.378,8326
880734,1649024964.38,8327
880735,1649024964.382,8327
880736,1649024964.384,8329
880737,1649024964.386,8330
880738,1649024964.388,8332
880739,1649024964.39,8334
880740,1649024964.392,8336
880741,1649024964.394,8338
880742,1649024964.396,8339
880743,1649024964.398,8339
880744,1649024964.4,8340
880745,1649024964.402,8340
880746,1649024964.404,8341
880747,1649024964.406,8341
880748,1649024964.408,8342
880749,1649024964.41,8343
880750,1649024964.412,8344
880751,1649024964.414,8345
880752,1649024964.416,8346
880753,1649024964.418,8347
880754,1649024964.42,8348
880755,1649024964.422,8350
880756,1649024964.424,8351
880757,1649024964.426,8352
880758,1649024964.428,8353
880759,1649024964.43,8354
880760,1649024964.432,8355
880761,1649024964.434,8356
880762,1649024964.436,8357
880763,1649024964.438,8359
880764,1649024964.44,8361
880765,1649024964.442,8362
880766,1649024964.444,8363
880767,1649024964.446,8363
880768,1649024964.448,8364
880769,1649024964.45,8364
880770,1649024964.452,8364
880771,1649024964.454,8365
880772,1649024964.456,8365
880773,1649024964.458,8366
880774,1649024964.46,8368
880775,1649024964.462,8370
880776,1649024964.464,8372
880777,1649024964.466,8374
880778,1649024964.468,8377
880779,1649024964.47,8379
880780,1649024964.472,8380
880781,1649024964.474,8381
880782,1649024964.476,8382
880783,1649024964.478,8383
880784,1649024964.48,8384
880785,1649024964.482,8385
880786,1649024964.484,8385
880787,1649024964.486,8386
880788,1649024964.488,8386
880789,1649024964.49,8386
880790,1649024964.492,8387
880791,1649024964.494,8387
880792,1649024964.496,8387
880793,1649024964.498,8387
880794,1649024964.5,8386
880795,1649024964.502,8384
880796,1649024964.504,8383
880797,1649024964.506,8382
880798,1649024964.508,8380
880799,1649024964.51,8380
880800,1649024964.512,8378
880801,1649024964.514,8377
880802,1649024964.516,8376
880803,1649024964.518,8375
880804,1649024964.52,8374
880805,1649024964.522,8373
880806,1649024964.524,8371
880807,1649024964.526,8370
880808,1649024964.528,8368
880809,1649024964.53,8367
880810,1649024964.532,8365
880811,1649024964.534,8363
880812,1649024964.536,8362
880813,1649024964.538,8360
880814,1649024964.54,8358
880815,1649024964.542,8357
880816,1649024964.544,8355
880817,1649024964.546,8352
880818,1649024964.548,8350
880819,1649024964.55,8349
880820,1649024964.552,8347
880821,1649024964.554,8346
880822,1649024964.556,8345
880823,1649024964.558,8345
880824,1649024964.56,8345
880825,1649024964.562,8345
880826,1649024964.564,8344
880827,1649024964.566,8343
880828,1649024964.568,8342
880829,1649024964.57,8340
880830,1649024964.572,8338
880831,1649024964.574,8336
880832,1649024964.576,8334
880833,1649024964.578,8332
880834,1649024964.58,8330
880835,1649024964.582,8328
880836,1649024964.584,8326
880837,1649024964.586,8324
880838,1649024964.588,8323
880839,1649024964.59,8322
880840,1649024964.592,8320
880841,1649024964.594,8318
880842,1649024964.596,8316
880843,1649024964.598,8314
880844,1649024964.6,8312
880845,1649024964.602,8309
880846,1649024964.604,8307
880847,1649024964.606,8305
880848,1649024964.608,8304
880849,1649024964.61,8302
880850,1649024964.612,8300
880851,1649024964.614,8298
880852,1649024964.616,8296
880853,1649024964.618,8294
880854,1649024964.62,8293
880855,1649024964.622,8292
880856,1649024964.624,8291
880857,1649024964.626,8291
880858,1649024964.628,8291
880859,1649024964.63,8291
880860,1649024964.632,8291
880861,1649024964.634,8291
880862,1649024964.636,8290
880863,1649024964.638,8290
880864,1649024964.64,8291
880865,1649024964.642,8291
880866,1649024964.644,8292
880867,1649024964.646,8292
880868,1649024964.648,8291
880869,1649024964.65,8291
880870,1649024964.652,8292
880871,1649024964.654,8291
880872,1649024964.656,8291
880873,1649024964.658,8291
880874,1649024964.66,8291
880875,1649024964.662,8291
880876,1649024964.664,8290
880877,1649024964.666,8289
880878,1649024964.668,8288
880879,1649024964.67,8287
880880,1649024964.672,8286
880881,1649024964.674,8286
880882,1649024964.676,8286
880883,1649024964.678,8286
880884,1649024964.68,8286
880885,1649024964.682,8286
880886,1649024964.684,8286
880887,1649024964.686,8286
880888,1649024964.688,8285
880889,1649024964.69,8285
880890,1649024964.692,8285
880891,1649024964.694,8285
880892,1649024964.696,8285
880893,1649024964.698,8285
880894,1649024964.7,8284
880895,1649024964.702,8283
880896,1649024964.704,8282
880897,1649024964.706,8282
880898,1649024964.708,8281
880899,1649024964.71,8280
880900,1649024964.712,8279
880901,1649024964.714,8278
880902,1649024964.716,8277
880903,1649024964.718,8276
880904,1649024964.72,8274
880905,1649024964.722,8273
880906,1649024964.724,8272
880907,1649024964.726,8271
880908,1649024964.728,8270
880909,1649024964.73,8270
880910,1649024964.732,8268
880911,1649024964.734,8267
880912,1649024964.736,8265
880913,1649024964.738,8263
880914,1649024964.74,8261
880915,1649024964.742,8259
880916,1649024964.744,8256
880917,1649024964.746,8254
880918,1649024964.748,8251
880919,1649024964.75,8249
880920,1649024964.752,8245
880921,1649024964.754,8242
880922,1649024964.756,8239
880923,1649024964.758,8235
880924,1649024964.76,8232
880925,1649024964.762,8228
880926,1649024964.764,8224
880927,1649024964.766,8220
880928,1649024964.768,8217
880929,1649024964.77,8213
880930,1649024964.772,8209
880931,1649024964.774,8206
880932,1649024964.776,8202
880933,1649024964.778,8199
880934,1649024964.78,8196
880935,1649024964.782,8193
880936,1649024964.784,8189
880937,1649024964.786,8186
880938,1649024964.788,8182
880939,1649024964.79,8179
880940,1649024964.792,8175
880941,1649024964.794,8173
880942,1649024964.796,8170
880943,1649024964.798,8168
880944,1649024964.8,8165
880945,1649024964.802,8163
880946,1649024964.804,8160
880947,1649024964.806,8157
880948,1649024964.808,8154
880949,1649024964.81,8151
880950,1649024964.812,8149
880951,1649024964.814,8146
880952,1649024964.816,8145
880953,1649024964.818,8143
880954,1649024964.82,8142
880955,1649024964.822,8140
880956,1649024964.824,8138
880957,1649024964.826,8137
880958,1649024964.828,8136
880959,1649024964.83,8135
880960,1649024964.832,8135
880961,1649024964.834,8135
880962,1649024964.836,8136
880963,1649024964.838,8137
880964,1649024964.84,8138
880965,1649024964.842,8137
880966,1649024964.844,8134
880967,1649024964.846,8131
880968,1649024964.848,8129
880969,1649024964.85,8129
880970,1649024964.852,8130
880971,1649024964.854,8129
880972,1649024964.856,8127
880973,1649024964.858,8125
880974,1649024964.86,8124
880975,1649024964.862,8123
880976,1649024964.864,8122
880977,1649024964.866,8121
880978,1649024964.868,8121
880979,1649024964.87,8122
880980,1649024964.872,8122
880981,1649024964.874,8122
880982,1649024964.876,8121
880983,1649024964.878,8120
880984,1649024964.88,8118
880985,1649024964.882,8117
880986,1649024964.884,8117
880987,1649024964.886,8116
880988,1649024964.888,8116
880989,1649024964.89,8115
880990,1649024964.892,8115
880991,1649024964.894,8114
880992,1649024964.896,8113
880993,1649024964.898,8111
880994,1649024964.9,8110
880995,1649024964.902,8109
880996,1649024964.904,8108
880997,1649024964.906,8107
880998,1649024964.908,8106
880999,1649024964.91,8105
881000,1649024964.912,8104
881001,1649024964.914,8102
881002,1649024964.916,8100
881003,1649024964.918,8098
881004,1649024964.92,8097
881005,1649024964.922,8095
881006,1649024964.924,8094
881007,1649024964.926,8093
881008,1649024964.928,8092
881009,1649024964.93,8090
881010,1649024964.932,8089
881011,1649024964.934,8087
881012,1649024964.936,8086
881013,1649024964.938,8084
881014,1649024964.94,8083
881015,1649024964.942,8082
881016,1649024964.944,8080
881017,1649024964.946,8079
881018,1649024964.948,8078
881019,1649024964.95,8077
881020,1649024964.952,8076
881021,1649024964.954,8075
881022,1649024964.956,8074
881023,1649024964.958,8072
881024,1649024964.96,8071
881025,1649024964.962,8069
881026,1649024964.964,8068
881027,1649024964.966,8067
881028,1649024964.968,8066
881029,1649024964.97,8065
881030,1649024964.972,8064
881031,1649024964.974,8063
881032,1649024964.976,8063
881033,1649024964.978,8062
881034,1649024964.98,8062
881035,1649024964.982,8061
881036,1649024964.984,8060
881037,1649024964.986,8060
881038,1649024964.988,8061
881039,1649024964.99,8061
881040,1649024964.992,8061
881041,1649024964.994,8061
881042,1649024964.996,8061
881043,1649024964.998,8061
881044,1649024965.0,8062
881045,1649024965.002,8064
881046,1649024965.004,8065
881047,1649024965.006,8064
881048,1649024965.008,8062
881049,1649024965.01,8060
881050,1649024965.012,8059
881051,1649024965.014,8059
881052,1649024965.016,8059
881053,1649024965.018,8059
881054,1649024965.02,8060
881055,1649024965.022,8060
881056,1649024965.024,8060
881057,1649024965.026,8060
881058,1649024965.028,8061
881059,1649024965.03,8061
881060,1649024965.032,8061
881061,1649024965.034,8061
881062,1649024965.036,8061
881063,1649024965.038,8062
881064,1649024965.04,8063
881065,1649024965.042,8063
881066,1649024965.044,8063
881067,1649024965.046,8064
881068,1649024965.048,8064
881069,1649024965.05,8065
881070,1649024965.052,8066
881071,1649024965.054,8067
881072,1649024965.056,8068
881073,1649024965.058,8069
881074,1649024965.06,8070
881075,1649024965.062,8070
881076,1649024965.064,8070
881077,1649024965.066,8071
881078,1649024965.068,8071
881079,1649024965.07,8071
881080,1649024965.072,8070
881081,1649024965.074,8070
881082,1649024965.076,8070
881083,1649024965.078,8070
881084,1649024965.08,8070
881085,1649024965.082,8071
881086,1649024965.084,8071
881087,1649024965.086,8071
881088,1649024965.088,8071
881089,1649024965.09,8071
881090,1649024965.092,8072
881091,1649024965.094,8072
881092,1649024965.096,8072
881093,1649024965.098,8072
881094,1649024965.1,8073
881095,1649024965.102,8074
881096,1649024965.104,8074
881097,1649024965.106,8076
881098,1649024965.108,8077
881099,1649024965.11,8077
881100,1649024965.112,8078
881101,1649024965.114,8078
881102,1649024965.116,8078
881103,1649024965.118,8077
881104,1649024965.12,8077
881105,1649024965.122,8077
881106,1649024965.124,8078
881107,1649024965.126,8078
881108,1649024965.128,8078
881109,1649024965.13,8078
881110,1649024965.132,8077
881111,1649024965.134,8077
881112,1649024965.136,8077
881113,1649024965.138,8078
881114,1649024965.14,8078
881115,1649024965.142,8079
881116,1649024965.144,8079
881117,1649024965.146,8079
881118,1649024965.148,8079
881119,1649024965.15,8080
881120,1649024965.152,8080
881121,1649024965.154,8080
881122,1649024965.156,8080
881123,1649024965.158,8080
881124,1649024965.16,8080
881125,1649024965.162,8080
881126,1649024965.164,8080
881127,1649024965.166,8080
881128,1649024965.168,8081
881129,1649024965.17,8081
881130,1649024965.172,8081
881131,1649024965.174,8082
881132,1649024965.176,8082
881133,1649024965.178,8082
881134,1649024965.18,8081
881135,1649024965.182,8081
881136,1649024965.184,8080
881137,1649024965.186,8079
881138,1649024965.188,8079
881139,1649024965.19,8078
881140,1649024965.192,8077
881141,1649024965.194,8077
881142,1649024965.196,8077
881143,1649024965.198,8076
881144,1649024965.2,8076
881145,1649024965.202,8076
881146,1649024965.204,8076
881147,1649024965.206,8077
881148,1649024965.208,8077
881149,1649024965.21,8077
881150,1649024965.212,8077
881151,1649024965.214,8076
881152,1649024965.216,8076
881153,1649024965.218,8076
881154,1649024965.22,8076
881155,1649024965.222,8077
881156,1649024965.224,8078
881157,1649024965.226,8080
881158,1649024965.228,8081
881159,1649024965.23,8082
881160,1649024965.232,8082
881161,1649024965.234,8083
881162,1649024965.236,8083
881163,1649024965.238,8084
881164,1649024965.24,8084
881165,1649024965.242,8086
881166,1649024965.244,8087
881167,1649024965.246,8088
881168,1649024965.248,8088
881169,1649024965.25,8088
881170,1649024965.252,8088
881171,1649024965.254,8088
881172,1649024965.256,8088
881173,1649024965.258,8089
881174,1649024965.26,8090
881175,1649024965.262,8091
881176,1649024965.264,8091
881177,1649024965.266,8091
881178,1649024965.268,8091
881179,1649024965.27,8091
881180,1649024965.272,8091
881181,1649024965.274,8092
881182,1649024965.276,8092
881183,1649024965.278,8094
881184,1649024965.28,8095
881185,1649024965.282,8096
881186,1649024965.284,8097
881187,1649024965.286,8098
881188,1649024965.288,8099
881189,1649024965.29,8099
881190,1649024965.292,8100
881191,1649024965.294,8100
881192,1649024965.296,8101
881193,1649024965.298,8101
881194,1649024965.3,8102
881195,1649024965.302,8103
881196,1649024965.304,8103
881197,1649024965.306,8104
881198,1649024965.308,8106
881199,1649024965.31,8108
881200,1649024965.312,8110
881201,1649024965.314,8110
881202,1649024965.316,8109
881203,1649024965.318,8107
881204,1649024965.32,8106
881205,1649024965.322,8105
881206,1649024965.324,8106
881207,1649024965.326,8106
881208,1649024965.328,8107
881209,1649024965.33,8109
881210,1649024965.332,8110
881211,1649024965.334,8111
881212,1649024965.336,8111
881213,1649024965.338,8112
881214,1649024965.34,8112
881215,1649024965.342,8113
881216,1649024965.344,8114
881217,1649024965.346,8114
881218,1649024965.348,8115
881219,1649024965.35,8115
881220,1649024965.352,8115
881221,1649024965.354,8115
881222,1649024965.356,8116
881223,1649024965.358,8117
881224,1649024965.36,8117
881225,1649024965.362,8118
881226,1649024965.364,8117
881227,1649024965.366,8117
881228,1649024965.368,8116
881229,1649024965.37,8116
881230,1649024965.372,8117
881231,1649024965.374,8116
881232,1649024965.376,8113
881233,1649024965.378,8111
881234,1649024965.38,8109
881235,1649024965.382,8109
881236,1649024965.384,8109
881237,1649024965.386,8109
881238,1649024965.388,8109
881239,1649024965.39,8109
881240,1649024965.392,8110
881241,1649024965.394,8111
881242,1649024965.396,8113
881243,1649024965.398,8115
881244,1649024965.4,8117
881245,1649024965.402,8119
881246,1649024965.404,8120
881247,1649024965.406,8122
881248,1649024965.408,8123
881249,1649024965.41,8125
881250,1649024965.412,8127
881251,1649024965.414,8129
881252,1649024965.416,8130
881253,1649024965.418,8132
881254,1649024965.42,8134
881255,1649024965.422,8136
881256,1649024965.424,8137
881257,1649024965.426,8138
881258,1649024965.428,8139
881259,1649024965.43,8139
881260,1649024965.432,8139
881261,1649024965.434,8140
881262,1649024965.436,8141
881263,1649024965.438,8142
881264,1649024965.44,8144
881265,1649024965.442,8145
881266,1649024965.444,8145
881267,1649024965.446,8146
881268,1649024965.448,8147
881269,1649024965.45,8149
881270,1649024965.452,8152
881271,1649024965.454,8154
881272,1649024965.456,8156
881273,1649024965.458,8158
881274,1649024965.46,8160
881275,1649024965.462,8162
881276,1649024965.464,8164
881277,1649024965.466,8166
881278,1649024965.468,8167
881279,1649024965.47,8168
881280,1649024965.472,8170
881281,1649024965.474,8172
881282,1649024965.476,8173
881283,1649024965.478,8174
881284,1649024965.48,8175
881285,1649024965.482,8177
881286,1649024965.484,8178
881287,1649024965.486,8179
881288,1649024965.488,8180
881289,1649024965.49,8180
881290,1649024965.492,8181
881291,1649024965.494,8182
881292,1649024965.496,8183
881293,1649024965.498,8184
881294,1649024965.5,8185
881295,1649024965.502,8186
881296,1649024965.504,8188
881297,1649024965.506,8189
881298,1649024965.508,8190
881299,1649024965.51,8192
881300,1649024965.512,8193
881301,1649024965.514,8194
881302,1649024965.516,8195
881303,1649024965.518,8196
881304,1649024965.52,8198
881305,1649024965.522,8199
881306,1649024965.524,8201
881307,1649024965.526,8202
881308,1649024965.528,8203
881309,1649024965.53,8204
881310,1649024965.532,8204
881311,1649024965.534,8205
881312,1649024965.536,8205
881313,1649024965.538,8206
881314,1649024965.54,8207
881315,1649024965.542,8209
881316,1649024965.544,8211
881317,1649024965.546,8213
881318,1649024965.548,8214
881319,1649024965.55,8215
881320,1649024965.552,8216
881321,1649024965.554,8218
881322,1649024965.556,8219
881323,1649024965.558,8221
881324,1649024965.56,8222
881325,1649024965.562,8224
881326,1649024965.564,8226
881327,1649024965.566,8228
881328,1649024965.568,8229
881329,1649024965.57,8230
881330,1649024965.572,8232
881331,1649024965.574,8233
881332,1649024965.576,8235
881333,1649024965.578,8236
881334,1649024965.58,8237
881335,1649024965.582,8238
881336,1649024965.584,8239
881337,1649024965.586,8241
881338,1649024965.588,8242
881339,1649024965.59,8243
881340,1649024965.592,8245
881341,1649024965.594,8246
881342,1649024965.596,8247
881343,1649024965.598,8249
881344,1649024965.6,8250
881345,1649024965.602,8252
881346,1649024965.604,8253
881347,1649024965.606,8254
881348,1649024965.608,8255
881349,1649024965.61,8256
881350,1649024965.612,8258
881351,1649024965.614,8259
881352,1649024965.616,8260
881353,1649024965.618,8260
881354,1649024965.62,8260
881355,1649024965.622,8261
881356,1649024965.624,8261
881357,1649024965.626,8261
881358,1649024965.628,8261
881359,1649024965.63,8262
881360,1649024965.632,8262
881361,1649024965.634,8262
881362,1649024965.636,8262
881363,1649024965.638,8262
881364,1649024965.64,8263
881365,1649024965.642,8263
881366,1649024965.644,8264
881367,1649024965.646,8264
881368,1649024965.648,8264
881369,1649024965.65,8265
881370,1649024965.652,8266
881371,1649024965.654,8266
881372,1649024965.656,8267
881373,1649024965.658,8267
881374,1649024965.66,8268
881375,1649024965.662,8268
881376,1649024965.664,8267
881377,1649024965.666,8268
881378,1649024965.668,8268
881379,1649024965.67,8269
881380,1649024965.672,8269
881381,1649024965.674,8269
881382,1649024965.676,8270
881383,1649024965.678,8270
881384,1649024965.68,8269
881385,1649024965.682,8268
881386,1649024965.684,8267
881387,1649024965.686,8266
881388,1649024965.688,8265
881389,1649024965.69,8265
881390,1649024965.692,8265
881391,1649024965.694,8264
881392,1649024965.696,8264
881393,1649024965.698,8264
881394,1649024965.7,8264
881395,1649024965.702,8264
881396,1649024965.704,8264
881397,1649024965.706,8265
881398,1649024965.708,8266
881399,1649024965.71,8266
881400,1649024965.712,8266
881401,1649024965.714,8267
881402,1649024965.716,8267
881403,1649024965.718,8268
881404,1649024965.72,8268
881405,1649024965.722,8269
881406,1649024965.724,8269
881407,1649024965.726,8269
881408,1649024965.728,8269
881409,1649024965.73,8270
881410,1649024965.732,8270
881411,1649024965.734,8271
881412,1649024965.736,8271
881413,1649024965.738,8272
881414,1649024965.74,8272
881415,1649024965.742,8273
881416,1649024965.744,8273
881417,1649024965.746,8273
881418,1649024965.748,8273
881419,1649024965.75,8274
881420,1649024965.752,8274
881421,1649024965.754,8275
881422,1649024965.756,8276
881423,1649024965.758,8276
881424,1649024965.76,8277
881425,1649024965.762,8277
881426,1649024965.764,8278
881427,1649024965.766,8279
881428,1649024965.768,8280
881429,1649024965.77,8282
881430,1649024965.772,8284
881431,1649024965.774,8287
881432,1649024965.776,8289
881433,1649024965.778,8291
881434,1649024965.78,8293
881435,1649024965.782,8294
881436,1649024965.784,8296
881437,1649024965.786,8298
881438,1649024965.788,8300
881439,1649024965.79,8302
881440,1649024965.792,8305
881441,1649024965.794,8307
881442,1649024965.796,8308
881443,1649024965.798,8310
881444,1649024965.8,8312
881445,1649024965.802,8314
881446,1649024965.804,8315
881447,1649024965.806,8317
881448,1649024965.808,8319
881449,1649024965.81,8320
881450,1649024965.812,8320
881451,1649024965.814,8320
881452,1649024965.816,8321
881453,1649024965.818,8321
881454,1649024965.82,8321
881455,1649024965.822,8322
881456,1649024965.824,8323
881457,1649024965.826,8324
881458,1649024965.828,8324
881459,1649024965.83,8324
881460,1649024965.832,8324
881461,1649024965.834,8323
881462,1649024965.836,8322
881463,1649024965.838,8322
881464,1649024965.84,8322
881465,1649024965.842,8322
881466,1649024965.844,8322
881467,1649024965.846,8323
881468,1649024965.848,8324
881469,1649024965.85,8324
881470,1649024965.852,8325
881471,1649024965.854,8325
881472,1649024965.856,8325
881473,1649024965.858,8325
881474,1649024965.86,8326
881475,1649024965.862,8326
881476,1649024965.864,8326
881477,1649024965.866,8326
881478,1649024965.868,8327
881479,1649024965.87,8327
881480,1649024965.872,8328
881481,1649024965.874,8329
881482,1649024965.876,8330
881483,1649024965.878,8330
881484,1649024965.88,8331
881485,1649024965.882,8332
881486,1649024965.884,8332
881487,1649024965.886,8332
881488,1649024965.888,8331
881489,1649024965.89,8331
881490,1649024965.892,8330
881491,1649024965.894,8329
881492,1649024965.896,8328
881493,1649024965.898,8327
881494,1649024965.9,8326
881495,1649024965.902,8325
881496,1649024965.904,8323
881497,1649024965.906,8322
881498,1649024965.908,8321
881499,1649024965.91,8319
881500,1649024965.912,8318
881501,1649024965.914,8317
881502,1649024965.916,8316
881503,1649024965.918,8315
881504,1649024965.92,8313
881505,1649024965.922,8311
881506,1649024965.924,8310
881507,1649024965.926,8308
881508,1649024965.928,8306
881509,1649024965.93,8304
881510,1649024965.932,8301
881511,1649024965.934,8299
881512,1649024965.936,8297
881513,1649024965.938,8296
881514,1649024965.94,8294
881515,1649024965.942,8293
881516,1649024965.944,8292
881517,1649024965.946,8291
881518,1649024965.948,8290
881519,1649024965.95,8289
881520,1649024965.952,8289
881521,1649024965.954,8288
881522,1649024965.956,8289
881523,1649024965.958,8289
881524,1649024965.96,8290
881525,1649024965.962,8290
881526,1649024965.964,8291
881527,1649024965.966,8292
881528,1649024965.968,8293
881529,1649024965.97,8294
881530,1649024965.972,8295
881531,1649024965.974,8296
881532,1649024965.976,8297
881533,1649024965.978,8297
881534,1649024965.98,8297
881535,1649024965.982,8298
881536,1649024965.984,8298
881537,1649024965.986,8298
881538,1649024965.988,8299
881539,1649024965.99,8300
881540,1649024965.992,8300
881541,1649024965.994,8299
881542,1649024965.996,8299
881543,1649024965.998,8299
881544,1649024966.0,8299
881545,1649024966.002,8299
881546,1649024966.004,8299
881547,1649024966.006,8300
881548,1649024966.008,8300
881549,1649024966.01,8301
881550,1649024966.012,8300
881551,1649024966.014,8300
881552,1649024966.016,8299
881553,1649024966.018,8299
881554,1649024966.02,8299
881555,1649024966.022,8299
881556,1649024966.024,8298
881557,1649024966.026,8297
881558,1649024966.028,8295
881559,1649024966.03,8294
881560,1649024966.032,8293
881561,1649024966.034,8291
881562,1649024966.036,8290
881563,1649024966.038,8288
881564,1649024966.04,8287
881565,1649024966.042,8286
881566,1649024966.044,8284
881567,1649024966.046,8283
881568,1649024966.048,8282
881569,1649024966.05,8280
881570,1649024966.052,8280
881571,1649024966.054,8279
881572,1649024966.056,8279
881573,1649024966.058,8278
881574,1649024966.06,8277
881575,1649024966.062,8276
881576,1649024966.064,8276
881577,1649024966.066,8275
881578,1649024966.068,8274
881579,1649024966.07,8272
881580,1649024966.072,8270
881581,1649024966.074,8269
881582,1649024966.076,8267
881583,1649024966.078,8265
881584,1649024966.08,8264
881585,1649024966.082,8263
881586,1649024966.084,8261
881587,1649024966.086,8259
881588,1649024966.088,8257
881589,1649024966.09,8254
881590,1649024966.092,8252
881591,1649024966.094,8249
881592,1649024966.096,8247
881593,1649024966.098,8245
881594,1649024966.1,8243
881595,1649024966.102,8241
881596,1649024966.104,8238
881597,1649024966.106,8235
881598,1649024966.108,8233
881599,1649024966.11,8230
881600,1649024966.112,8228
881601,1649024966.114,8224
881602,1649024966.116,8221
881603,1649024966.118,8217
881604,1649024966.12,8213
881605,1649024966.122,8210
881606,1649024966.124,8206
881607,1649024966.126,8202
881608,1649024966.128,8199
881609,1649024966.13,8195
881610,1649024966.132,8191
881611,1649024966.134,8187
881612,1649024966.136,8183
881613,1649024966.138,8180
881614,1649024966.14,8176
881615,1649024966.142,8172
881616,1649024966.144,8168
881617,1649024966.146,8165
881618,1649024966.148,8161
881619,1649024966.15,8157
881620,1649024966.152,8153
881621,1649024966.154,8150
881622,1649024966.156,8147
881623,1649024966.158,8143
881624,1649024966.16,8139
881625,1649024966.162,8136
881626,1649024966.164,8132
881627,1649024966.166,8129
881628,1649024966.168,8126
881629,1649024966.17,8123
881630,1649024966.172,8120
881631,1649024966.174,8118
881632,1649024966.176,8115
881633,1649024966.178,8113
881634,1649024966.18,8111
881635,1649024966.182,8109
881636,1649024966.184,8106
881637,1649024966.186,8104
881638,1649024966.188,8102
881639,1649024966.19,8101
881640,1649024966.192,8099
881641,1649024966.194,8098
881642,1649024966.196,8097
881643,1649024966.198,8096
881644,1649024966.2,8096
881645,1649024966.202,8095
881646,1649024966.204,8095
881647,1649024966.206,8094
881648,1649024966.208,8094
881649,1649024966.21,8094
881650,1649024966.212,8093
881651,1649024966.214,8093
881652,1649024966.216,8092
881653,1649024966.218,8091
881654,1649024966.22,8090
881655,1649024966.222,8089
881656,1649024966.224,8089
881657,1649024966.226,8088
881658,1649024966.228,8087
881659,1649024966.23,8086
881660,1649024966.232,8085
881661,1649024966.234,8084
881662,1649024966.236,8083
881663,1649024966.238,8083
881664,1649024966.24,8083
881665,1649024966.242,8083
881666,1649024966.244,8082
881667,1649024966.246,8081
881668,1649024966.248,8081
881669,1649024966.25,8080
881670,1649024966.252,8079
881671,1649024966.254,8078
881672,1649024966.256,8077
881673,1649024966.258,8076
881674,1649024966.26,8075
881675,1649024966.262,8075
881676,1649024966.264,8074
881677,1649024966.266,8073
881678,1649024966.268,8073
881679,1649024966.27,8072
881680,1649024966.272,8071
881681,1649024966.274,8070
881682,1649024966.276,8068
881683,1649024966.278,8065
881684,1649024966.28,8063
881685,1649024966.282,8062
881686,1649024966.284,8060
881687,1649024966.286,8059
881688,1649024966.288,8058
881689,1649024966.29,8058
881690,1649024966.292,8058
881691,1649024966.294,8059
881692,1649024966.296,8058
881693,1649024966.298,8058
881694,1649024966.3,8058
881695,1649024966.302,8058
881696,1649024966.304,8058
881697,1649024966.306,8058
881698,1649024966.308,8058
881699,1649024966.31,8059
881700,1649024966.312,8059
881701,1649024966.314,8059
881702,1649024966.316,8059
881703,1649024966.318,8060
881704,1649024966.32,8061
881705,1649024966.322,8062
881706,1649024966.324,8063
881707,1649024966.326,8063
881708,1649024966.328,8064
881709,1649024966.33,8064
881710,1649024966.332,8064
881711,1649024966.334,8065
881712,1649024966.336,8065
881713,1649024966.338,8066
881714,1649024966.34,8067
881715,1649024966.342,8068
881716,1649024966.344,8068
881717,1649024966.346,8069
881718,1649024966.348,8069
881719,1649024966.35,8070
881720,1649024966.352,8071
881721,1649024966.354,8071
881722,1649024966.356,8072
881723,1649024966.358,8073
881724,1649024966.36,8074
881725,1649024966.362,8075
881726,1649024966.364,8076
881727,1649024966.366,8076
881728,1649024966.368,8077
881729,1649024966.37,8077
881730,1649024966.372,8078
881731,1649024966.374,8078
881732,1649024966.376,8079
881733,1649024966.378,8079
881734,1649024966.38,8079
881735,1649024966.382,8079
881736,1649024966.384,8079
881737,1649024966.386,8080
881738,1649024966.388,8080
881739,1649024966.39,8081
881740,1649024966.392,8081
881741,1649024966.394,8082
881742,1649024966.396,8082
881743,1649024966.398,8083
881744,1649024966.4,8083
881745,1649024966.402,8084
881746,1649024966.404,8085
881747,1649024966.406,8085
881748,1649024966.408,8086
881749,1649024966.41,8087
881750,1649024966.412,8087
881751,1649024966.414,8088
881752,1649024966.416,8089
881753,1649024966.418,8089
881754,1649024966.42,8091
881755,1649024966.422,8092
881756,1649024966.424,8093
881757,1649024966.426,8094
881758,1649024966.428,8096
881759,1649024966.43,8097
881760,1649024966.432,8097
881761,1649024966.434,8098
881762,1649024966.436,8099
881763,1649024966.438,8101
881764,1649024966.44,8102
881765,1649024966.442,8103
881766,1649024966.444,8104
881767,1649024966.446,8105
881768,1649024966.448,8106
881769,1649024966.45,8107
881770,1649024966.452,8109
881771,1649024966.454,8110
881772,1649024966.456,8112
881773,1649024966.458,8114
881774,1649024966.46,8116
881775,1649024966.462,8117
881776,1649024966.464,8119
881777,1649024966.466,8120
881778,1649024966.468,8122
881779,1649024966.47,8124
881780,1649024966.472,8126
881781,1649024966.474,8128
881782,1649024966.476,8129
881783,1649024966.478,8131
881784,1649024966.48,8132
881785,1649024966.482,8134
881786,1649024966.484,8135
881787,1649024966.486,8137
881788,1649024966.488,8139
881789,1649024966.49,8140
881790,1649024966.492,8142
881791,1649024966.494,8144
881792,1649024966.496,8146
881793,1649024966.498,8147
881794,1649024966.5,8148
881795,1649024966.502,8150
881796,1649024966.504,8151
881797,1649024966.506,8152
881798,1649024966.508,8153
881799,1649024966.51,8155
881800,1649024966.512,8156
881801,1649024966.514,8157
881802,1649024966.516,8157
881803,1649024966.518,8158
881804,1649024966.52,8159
881805,1649024966.522,8160
881806,1649024966.524,8161
881807,1649024966.526,8162
881808,1649024966.528,8162
881809,1649024966.53,8163
881810,1649024966.532,8163
881811,1649024966.534,8164
881812,1649024966.536,8165
881813,1649024966.538,8166
881814,1649024966.54,8167
881815,1649024966.542,8168
881816,1649024966.544,8169
881817,1649024966.546,8170
881818,1649024966.548,8171
881819,1649024966.55,8172
881820,1649024966.552,8173
881821,1649024966.554,8174
881822,1649024966.556,8176
881823,1649024966.558,8177
881824,1649024966.56,8178
881825,1649024966.562,8179
881826,1649024966.564,8180
881827,1649024966.566,8181
881828,1649024966.568,8182
881829,1649024966.57,8183
881830,1649024966.572,8184
881831,1649024966.574,8185
881832,1649024966.576,8186
881833,1649024966.578,8187
881834,1649024966.58,8188
881835,1649024966.582,8188
881836,1649024966.584,8188
881837,1649024966.586,8188
881838,1649024966.588,8188
881839,1649024966.59,8189
881840,1649024966.592,8190
881841,1649024966.594,8190
881842,1649024966.596,8190
881843,1649024966.598,8191
881844,1649024966.6,8191
881845,1649024966.602,8192
881846,1649024966.604,8193
881847,1649024966.606,8195
881848,1649024966.608,8196
881849,1649024966.61,8197
881850,1649024966.612,8197
881851,1649024966.614,8198
881852,1649024966.616,8199
881853,1649024966.618,8199
881854,1649024966.62,8200
881855,1649024966.622,8201
881856,1649024966.624,8202
881857,1649024966.626,8203
881858,1649024966.628,8203
881859,1649024966.63,8204
881860,1649024966.632,8205
881861,1649024966.634,8205
881862,1649024966.636,8205
881863,1649024966.638,8204
881864,1649024966.64,8204
881865,1649024966.642,8205
881866,1649024966.644,8205
881867,1649024966.646,8205
881868,1649024966.648,8206
881869,1649024966.65,8206
881870,1649024966.652,8207
881871,1649024966.654,8207
881872,1649024966.656,8208
881873,1649024966.658,8209
881874,1649024966.66,8209
881875,1649024966.662,8210
881876,1649024966.664,8210
881877,1649024966.666,8210
881878,1649024966.668,8211
881879,1649024966.67,8211
881880,1649024966.672,8212
881881,1649024966.674,8212
881882,1649024966.676,8212
881883,1649024966.678,8212
881884,1649024966.68,8212
881885,1649024966.682,8211
881886,1649024966.684,8211
881887,1649024966.686,8211
881888,1649024966.688,8212
881889,1649024966.69,8212
881890,1649024966.692,8212
881891,1649024966.694,8212
881892,1649024966.696,8212
881893,1649024966.698,8212
881894,1649024966.7,8212
881895,1649024966.702,8213
881896,1649024966.704,8213
881897,1649024966.706,8214
881898,1649024966.708,8215
881899,1649024966.71,8215
881900,1649024966.712,8214
881901,1649024966.714,8214
881902,1649024966.716,8213
881903,1649024966.718,8213
881904,1649024966.72,8212
881905,1649024966.722,8212
881906,1649024966.724,8211
881907,1649024966.726,8210
881908,1649024966.728,8209
881909,1649024966.73,8208
881910,1649024966.732,8208
881911,1649024966.734,8207
881912,1649024966.736,8206
881913,1649024966.738,8205
881914,1649024966.74,8204
881915,1649024966.742,8203
881916,1649024966.744,8202
881917,1649024966.746,8202
881918,1649024966.748,8201
881919,1649024966.75,8200
881920,1649024966.752,8199
881921,1649024966.754,8198
881922,1649024966.756,8198
881923,1649024966.758,8197
881924,1649024966.76,8196
881925,1649024966.762,8195
881926,1649024966.764,8194
881927,1649024966.766,8192
881928,1649024966.768,8191
881929,1649024966.77,8190
881930,1649024966.772,8190
881931,1649024966.774,8189
881932,1649024966.776,8188
881933,1649024966.778,8187
881934,1649024966.78,8186
881935,1649024966.782,8185
881936,1649024966.784,8184
881937,1649024966.786,8181
881938,1649024966.788,8179
881939,1649024966.79,8177
881940,1649024966.792,8176
881941,1649024966.794,8174
881942,1649024966.796,8173
881943,1649024966.798,8171
881944,1649024966.8,8170
881945,1649024966.802,8168
881946,1649024966.804,8167
881947,1649024966.806,8166
881948,1649024966.808,8164
881949,1649024966.81,8162
881950,1649024966.812,8161
881951,1649024966.814,8159
881952,1649024966.816,8158
881953,1649024966.818,8157
881954,1649024966.82,8157
881955,1649024966.822,8157
881956,1649024966.824,8157
881957,1649024966.826,8157
881958,1649024966.828,8157
881959,1649024966.83,8156
881960,1649024966.832,8155
881961,1649024966.834,8154
881962,1649024966.836,8152
881963,1649024966.838,8151
881964,1649024966.84,8150
881965,1649024966.842,8150
881966,1649024966.844,8149
881967,1649024966.846,8148
881968,1649024966.848,8147
881969,1649024966.85,8146
881970,1649024966.852,8145
881971,1649024966.854,8145
881972,1649024966.856,8144
881973,1649024966.858,8144
881974,1649024966.86,8143
881975,1649024966.862,8143
881976,1649024966.864,8142
881977,1649024966.866,8142
881978,1649024966.868,8141
881979,1649024966.87,8140
881980,1649024966.872,8140
881981,1649024966.874,8140
881982,1649024966.876,8139
881983,1649024966.878,8139
881984,1649024966.88,8139
881985,1649024966.882,8139
881986,1649024966.884,8138
881987,1649024966.886,8138
881988,1649024966.888,8137
881989,1649024966.89,8136
881990,1649024966.892,8135
881991,1649024966.894,8134
881992,1649024966.896,8133
881993,1649024966.898,8132
881994,1649024966.9,8131
881995,1649024966.902,8130
881996,1649024966.904,8129
881997,1649024966.906,8128
881998,1649024966.908,8128
881999,1649024966.91,8127
882000,1649024966.912,8126
882001,1649024966.914,8125
882002,1649024966.916,8124
882003,1649024966.918,8122
882004,1649024966.92,8121
882005,1649024966.922,8120
882006,1649024966.924,8120
882007,1649024966.926,8120
882008,1649024966.928,8121
882009,1649024966.93,8121
882010,1649024966.932,8121
882011,1649024966.934,8120
882012,1649024966.936,8119
882013,1649024966.938,8119
882014,1649024966.94,8118
882015,1649024966.942,8117
882016,1649024966.944,8116
882017,1649024966.946,8115
882018,1649024966.948,8114
882019,1649024966.95,8113
882020,1649024966.952,8113
882021,1649024966.954,8113
882022,1649024966.956,8113
882023,1649024966.958,8113
882024,1649024966.96,8114
882025,1649024966.962,8114
882026,1649024966.964,8115
882027,1649024966.966,8115
882028,1649024966.968,8116
882029,1649024966.97,8117
882030,1649024966.972,8117
882031,1649024966.974,8119
882032,1649024966.976,8120
882033,1649024966.978,8121
882034,1649024966.98,8122
882035,1649024966.982,8123
882036,1649024966.984,8124
882037,1649024966.986,8125
882038,1649024966.988,8127
882039,1649024966.99,8129
882040,1649024966.992,8131
882041,1649024966.994,8133
882042,1649024966.996,8135
882043,1649024966.998,8136
882044,1649024967.0,8138
882045,1649024967.002,8139
882046,1649024967.004,8140
882047,1649024967.006,8141
882048,1649024967.008,8142
882049,1649024967.01,8143
882050,1649024967.012,8144
882051,1649024967.014,8144
882052,1649024967.016,8145
882053,1649024967.018,8146
882054,1649024967.02,8146
882055,1649024967.022,8146
882056,1649024967.024,8147
882057,1649024967.026,8148
882058,1649024967.028,8149
882059,1649024967.03,8150
882060,1649024967.032,8151
882061,1649024967.034,8152
882062,1649024967.036,8153
882063,1649024967.038,8155
882064,1649024967.04,8156
882065,1649024967.042,8158
882066,1649024967.044,8159
882067,1649024967.046,8161
882068,1649024967.048,8163
882069,1649024967.05,8165
882070,1649024967.052,8167
882071,1649024967.054,8169
882072,1649024967.056,8171
882073,1649024967.058,8174
882074,1649024967.06,8176
882075,1649024967.062,8177
882076,1649024967.064,8179
882077,1649024967.066,8181
882078,1649024967.068,8183
882079,1649024967.07,8185
882080,1649024967.072,8188
882081,1649024967.074,8190
882082,1649024967.076,8192
882083,1649024967.078,8193
882084,1649024967.08,8195
882085,1649024967.082,8197
882086,1649024967.084,8198
882087,1649024967.086,8200
882088,1649024967.088,8202
882089,1649024967.09,8205
882090,1649024967.092,8207
882091,1649024967.094,8209
882092,1649024967.096,8210
882093,1649024967.098,8212
882094,1649024967.1,8213
882095,1649024967.102,8215
882096,1649024967.104,8217
882097,1649024967.106,8219
882098,1649024967.108,8221
882099,1649024967.11,8223
882100,1649024967.112,8225
882101,1649024967.114,8227
882102,1649024967.116,8229
882103,1649024967.118,8231
882104,1649024967.12,8233
882105,1649024967.122,8234
882106,1649024967.124,8236
882107,1649024967.126,8238
882108,1649024967.128,8241
882109,1649024967.13,8243
882110,1649024967.132,8246
882111,1649024967.134,8248
882112,1649024967.136,8250
882113,1649024967.138,8253
882114,1649024967.14,8256
882115,1649024967.142,8258
882116,1649024967.144,8261
882117,1649024967.146,8263
882118,1649024967.148,8265
882119,1649024967.15,8267
882120,1649024967.152,8269
882121,1649024967.154,8271
882122,1649024967.156,8274
882123,1649024967.158,8276
882124,1649024967.16,8279
882125,1649024967.162,8280
882126,1649024967.164,8282
882127,1649024967.166,8284
882128,1649024967.168,8286
882129,1649024967.17,8288
882130,1649024967.172,8290
882131,1649024967.174,8293
882132,1649024967.176,8296
882133,1649024967.178,8298
882134,1649024967.18,8299
882135,1649024967.182,8300
882136,1649024967.184,8302
882137,1649024967.186,8303
882138,1649024967.188,8305
882139,1649024967.19,8308
882140,1649024967.192,8310
882141,1649024967.194,8313
882142,1649024967.196,8315
882143,1649024967.198,8316
882144,1649024967.2,8318
882145,1649024967.202,8319
882146,1649024967.204,8322
882147,1649024967.206,8324
882148,1649024967.208,8325
882149,1649024967.21,8326
882150,1649024967.212,8326
882151,1649024967.214,8326
882152,1649024967.216,8326
882153,1649024967.218,8327
882154,1649024967.22,8327
882155,1649024967.222,8328
882156,1649024967.224,8328
882157,1649024967.226,8329
882158,1649024967.228,8329
882159,1649024967.23,8329
882160,1649024967.232,8329
882161,1649024967.234,8329
882162,1649024967.236,8329
882163,1649024967.238,8329
882164,1649024967.24,8330
882165,1649024967.242,8330
882166,1649024967.244,8330
882167,1649024967.246,8330
882168,1649024967.248,8330
882169,1649024967.25,8329
882170,1649024967.252,8329
882171,1649024967.254,8329
882172,1649024967.256,8328
882173,1649024967.258,8328
882174,1649024967.26,8328
882175,1649024967.262,8327
882176,1649024967.264,8327
882177,1649024967.266,8326
882178,1649024967.268,8324
882179,1649024967.27,8323
882180,1649024967.272,8322
882181,1649024967.274,8320
882182,1649024967.276,8318
882183,1649024967.278,8315
882184,1649024967.28,8313
882185,1649024967.282,8311
882186,1649024967.284,8308
882187,1649024967.286,8305
882188,1649024967.288,8302
882189,1649024967.29,8299
882190,1649024967.292,8296
882191,1649024967.294,8293
882192,1649024967.296,8291
882193,1649024967.298,8288
882194,1649024967.3,8285
882195,1649024967.302,8282
882196,1649024967.304,8280
882197,1649024967.306,8278
882198,1649024967.308,8275
882199,1649024967.31,8273
882200,1649024967.312,8271
882201,1649024967.314,8269
882202,1649024967.316,8267
882203,1649024967.318,8265
882204,1649024967.32,8263
882205,1649024967.322,8261
882206,1649024967.324,8259
882207,1649024967.326,8258
882208,1649024967.328,8256
882209,1649024967.33,8255
882210,1649024967.332,8253
882211,1649024967.334,8252
882212,1649024967.336,8251
882213,1649024967.338,8250
882214,1649024967.34,8249
882215,1649024967.342,8249
882216,1649024967.344,8249
882217,1649024967.346,8249
882218,1649024967.348,8248
882219,1649024967.35,8248
882220,1649024967.352,8247
882221,1649024967.354,8246
882222,1649024967.356,8245
882223,1649024967.358,8244
882224,1649024967.36,8242
882225,1649024967.362,8241
882226,1649024967.364,8239
882227,1649024967.366,8238
882228,1649024967.368,8236
882229,1649024967.37,8236
882230,1649024967.372,8235
882231,1649024967.374,8235
882232,1649024967.376,8235
882233,1649024967.378,8234
882234,1649024967.38,8234
882235,1649024967.382,8234
882236,1649024967.384,8233
882237,1649024967.386,8233
882238,1649024967.388,8233
882239,1649024967.39,8234
882240,1649024967.392,8234
882241,1649024967.394,8235
882242,1649024967.396,8235
882243,1649024967.398,8235
882244,1649024967.4,8236
882245,1649024967.402,8236
882246,1649024967.404,8236
882247,1649024967.406,8235
882248,1649024967.408,8235
882249,1649024967.41,8235
882250,1649024967.412,8235
882251,1649024967.414,8235
882252,1649024967.416,8235
882253,1649024967.418,8235
882254,1649024967.42,8235
882255,1649024967.422,8235
882256,1649024967.424,8235
882257,1649024967.426,8235
882258,1649024967.428,8236
882259,1649024967.43,8237
882260,1649024967.432,8237
882261,1649024967.434,8238
882262,1649024967.436,8239
882263,1649024967.438,8239
882264,1649024967.44,8239
882265,1649024967.442,8239
882266,1649024967.444,8239
882267,1649024967.446,8238
882268,1649024967.448,8237
882269,1649024967.45,8237
882270,1649024967.452,8236
882271,1649024967.454,8236
882272,1649024967.456,8235
882273,1649024967.458,8234
882274,1649024967.46,8233
882275,1649024967.462,8231
882276,1649024967.464,8229
882277,1649024967.466,8227
882278,1649024967.468,8224
882279,1649024967.47,8221
882280,1649024967.472,8217
882281,1649024967.474,8214
882282,1649024967.476,8211
882283,1649024967.478,8207
882284,1649024967.48,8203
882285,1649024967.482,8199
882286,1649024967.484,8196
882287,1649024967.486,8192
882288,1649024967.488,8189
882289,1649024967.49,8187
882290,1649024967.492,8184
882291,1649024967.494,8181
882292,1649024967.496,8179
882293,1649024967.498,8176
882294,1649024967.5,8174
882295,1649024967.502,8172
882296,1649024967.504,8170
882297,1649024967.506,8167
882298,1649024967.508,8165
882299,1649024967.51,8163
882300,1649024967.512,8160
882301,1649024967.514,8157
882302,1649024967.516,8153
882303,1649024967.518,8150
882304,1649024967.52,8147
882305,1649024967.522,8143
882306,1649024967.524,8140
882307,1649024967.526,8137
882308,1649024967.528,8134
882309,1649024967.53,8131
882310,1649024967.532,8129
882311,1649024967.534,8127
882312,1649024967.536,8125
882313,1649024967.538,8124
882314,1649024967.54,8122
882315,1649024967.542,8120
882316,1649024967.544,8119
882317,1649024967.546,8117
882318,1649024967.548,8116
882319,1649024967.55,8114
882320,1649024967.552,8112
882321,1649024967.554,8111
882322,1649024967.556,8109
882323,1649024967.558,8107
882324,1649024967.56,8105
882325,1649024967.562,8103
882326,1649024967.564,8101
882327,1649024967.566,8099
882328,1649024967.568,8097
882329,1649024967.57,8095
882330,1649024967.572,8093
882331,1649024967.574,8093
882332,1649024967.576,8092
882333,1649024967.578,8090
882334,1649024967.58,8089
882335,1649024967.582,8088
882336,1649024967.584,8087
882337,1649024967.586,8086
882338,1649024967.588,8085
882339,1649024967.59,8085
882340,1649024967.592,8085
882341,1649024967.594,8085
882342,1649024967.596,8084
882343,1649024967.598,8083
882344,1649024967.6,8082
882345,1649024967.602,8080
882346,1649024967.604,8080
882347,1649024967.606,8079
882348,1649024967.608,8078
882349,1649024967.61,8077
882350,1649024967.612,8076
882351,1649024967.614,8074
882352,1649024967.616,8073
882353,1649024967.618,8072
882354,1649024967.62,8071
882355,1649024967.622,8070
882356,1649024967.624,8070
882357,1649024967.626,8070
882358,1649024967.628,8070
882359,1649024967.63,8069
882360,1649024967.632,8068
882361,1649024967.634,8068
882362,1649024967.636,8067
882363,1649024967.638,8067
882364,1649024967.64,8067
882365,1649024967.642,8067
882366,1649024967.644,8067
882367,1649024967.646,8067
882368,1649024967.648,8067
882369,1649024967.65,8066
882370,1649024967.652,8065
882371,1649024967.654,8065
882372,1649024967.656,8064
882373,1649024967.658,8063
882374,1649024967.66,8062
882375,1649024967.662,8061
882376,1649024967.664,8060
882377,1649024967.666,8058
882378,1649024967.668,8057
882379,1649024967.67,8056
882380,1649024967.672,8055
882381,1649024967.674,8055
882382,1649024967.676,8054
882383,1649024967.678,8053
882384,1649024967.68,8053
882385,1649024967.682,8052
882386,1649024967.684,8052
882387,1649024967.686,8051
882388,1649024967.688,8051
882389,1649024967.69,8051
882390,1649024967.692,8051
882391,1649024967.694,8052
882392,1649024967.696,8052
882393,1649024967.698,8051
882394,1649024967.7,8051
882395,1649024967.702,8050
882396,1649024967.704,8049
882397,1649024967.706,8049
882398,1649024967.708,8049
882399,1649024967.71,8048
882400,1649024967.712,8048
882401,1649024967.714,8047
882402,1649024967.716,8046
882403,1649024967.718,8045
882404,1649024967.72,8044
882405,1649024967.722,8043
882406,1649024967.724,8042
882407,1649024967.726,8042
882408,1649024967.728,8042
882409,1649024967.73,8041
882410,1649024967.732,8041
882411,1649024967.734,8041
882412,1649024967.736,8040
882413,1649024967.738,8040
882414,1649024967.74,8039
882415,1649024967.742,8038
882416,1649024967.744,8038
882417,1649024967.746,8037
882418,1649024967.748,8037
882419,1649024967.75,8036
882420,1649024967.752,8036
882421,1649024967.754,8035
882422,1649024967.756,8035
882423,1649024967.758,8035
882424,1649024967.76,8034
882425,1649024967.762,8033
882426,1649024967.764,8033
882427,1649024967.766,8032
882428,1649024967.768,8032
882429,1649024967.77,8031
882430,1649024967.772,8031
882431,1649024967.774,8032
882432,1649024967.776,8032
882433,1649024967.778,8033
882434,1649024967.78,8034
882435,1649024967.782,8034
882436,1649024967.784,8035
882437,1649024967.786,8036
882438,1649024967.788,8037
882439,1649024967.79,8039
882440,1649024967.792,8041
882441,1649024967.794,8042
882442,1649024967.796,8044
882443,1649024967.798,8046
882444,1649024967.8,8047
882445,1649024967.802,8049
882446,1649024967.804,8050
882447,1649024967.806,8052
882448,1649024967.808,8054
882449,1649024967.81,8056
882450,1649024967.812,8058
882451,1649024967.814,8060
882452,1649024967.816,8061
882453,1649024967.818,8063
882454,1649024967.82,8064
882455,1649024967.822,8066
882456,1649024967.824,8067
882457,1649024967.826,8068
882458,1649024967.828,8070
882459,1649024967.83,8072
882460,1649024967.832,8075
882461,1649024967.834,8078
882462,1649024967.836,8080
882463,1649024967.838,8082
882464,1649024967.84,8084
882465,1649024967.842,8086
882466,1649024967.844,8087
882467,1649024967.846,8089
882468,1649024967.848,8092
882469,1649024967.85,8094
882470,1649024967.852,8097
882471,1649024967.854,8100
882472,1649024967.856,8102
882473,1649024967.858,8104
882474,1649024967.86,8106
882475,1649024967.862,8108
882476,1649024967.864,8110
882477,1649024967.866,8112
882478,1649024967.868,8115
882479,1649024967.87,8117
882480,1649024967.872,8120
882481,1649024967.874,8122
882482,1649024967.876,8125
882483,1649024967.878,8128
882484,1649024967.88,8131
882485,1649024967.882,8134
882486,1649024967.884,8136
882487,1649024967.886,8139
882488,1649024967.888,8141
882489,1649024967.89,8144
882490,1649024967.892,8146
882491,1649024967.894,8149
882492,1649024967.896,8151
882493,1649024967.898,8153
882494,1649024967.9,8156
882495,1649024967.902,8158
882496,1649024967.904,8161
882497,1649024967.906,8163
882498,1649024967.908,8164
882499,1649024967.91,8165
882500,1649024967.912,8166
882501,1649024967.914,8167
882502,1649024967.916,8169
882503,1649024967.918,8170
882504,1649024967.92,8172
882505,1649024967.922,8173
882506,1649024967.924,8174
882507,1649024967.926,8175
882508,1649024967.928,8176
882509,1649024967.93,8177
882510,1649024967.932,8179
882511,1649024967.934,8180
882512,1649024967.936,8182
882513,1649024967.938,8184
882514,1649024967.94,8186
882515,1649024967.942,8188
882516,1649024967.944,8189
882517,1649024967.946,8190
882518,1649024967.948,8192
882519,1649024967.95,8193
882520,1649024967.952,8195
882521,1649024967.954,8196
882522,1649024967.956,8198
882523,1649024967.958,8199
882524,1649024967.96,8201
882525,1649024967.962,8203
882526,1649024967.964,8205
882527,1649024967.966,8206
882528,1649024967.968,8208
882529,1649024967.97,8210
882530,1649024967.972,8212
882531,1649024967.974,8213
882532,1649024967.976,8215
882533,1649024967.978,8216
882534,1649024967.98,8217
882535,1649024967.982,8218
882536,1649024967.984,8219
882537,1649024967.986,8220
882538,1649024967.988,8221
882539,1649024967.99,8222
882540,1649024967.992,8223
882541,1649024967.994,8225
882542,1649024967.996,8226
882543,1649024967.998,8228
882544,1649024968.0,8229
882545,1649024968.002,8230
882546,1649024968.004,8231
882547,1649024968.006,8232
882548,1649024968.008,8233
882549,1649024968.01,8234
882550,1649024968.012,8234
882551,1649024968.014,8235
882552,1649024968.016,8235
882553,1649024968.018,8236
882554,1649024968.02,8236
882555,1649024968.022,8237
882556,1649024968.024,8238
882557,1649024968.026,8238
882558,1649024968.028,8239
882559,1649024968.03,8239
882560,1649024968.032,8239
882561,1649024968.034,8239
882562,1649024968.036,8239
882563,1649024968.038,8239
882564,1649024968.04,8240
882565,1649024968.042,8240
882566,1649024968.044,8240
882567,1649024968.046,8240
882568,1649024968.048,8240
882569,1649024968.05,8239
882570,1649024968.052,8238
882571,1649024968.054,8237
882572,1649024968.056,8237
882573,1649024968.058,8236
882574,1649024968.06,8236
882575,1649024968.062,8235
882576,1649024968.064,8235
882577,1649024968.066,8234
882578,1649024968.068,8234
882579,1649024968.07,8233
882580,1649024968.072,8233
882581,1649024968.074,8232
882582,1649024968.076,8232
882583,1649024968.078,8231
882584,1649024968.08,8231
882585,1649024968.082,8230
882586,1649024968.084,8230
882587,1649024968.086,8229
882588,1649024968.088,8228
882589,1649024968.09,8227
882590,1649024968.092,8227
882591,1649024968.094,8225
882592,1649024968.096,8224
882593,1649024968.098,8223
882594,1649024968.1,8221
882595,1649024968.102,8220
882596,1649024968.104,8219
882597,1649024968.106,8218
882598,1649024968.108,8217
882599,1649024968.11,8217
882600,1649024968.112,8216
882601,1649024968.114,8215
882602,1649024968.116,8215
882603,1649024968.118,8214
882604,1649024968.12,8213
882605,1649024968.122,8212
882606,1649024968.124,8211
882607,1649024968.126,8210
882608,1649024968.128,8209
882609,1649024968.13,8208
882610,1649024968.132,8207
882611,1649024968.134,8205
882612,1649024968.136,8204
882613,1649024968.138,8202
882614,1649024968.14,8201
882615,1649024968.142,8200
882616,1649024968.144,8199
882617,1649024968.146,8198
882618,1649024968.148,8196
882619,1649024968.15,8196
882620,1649024968.152,8195
882621,1649024968.154,8194
882622,1649024968.156,8193
882623,1649024968.158,8192
882624,1649024968.16,8191
882625,1649024968.162,8191
882626,1649024968.164,8190
882627,1649024968.166,8189
882628,1649024968.168,8188
882629,1649024968.17,8188
882630,1649024968.172,8187
882631,1649024968.174,8187
882632,1649024968.176,8187
882633,1649024968.178,8187
882634,1649024968.18,8186
882635,1649024968.182,8186
882636,1649024968.184,8185
882637,1649024968.186,8184
882638,1649024968.188,8184
882639,1649024968.19,8183
882640,1649024968.192,8182
882641,1649024968.194,8181
882642,1649024968.196,8180
882643,1649024968.198,8180
882644,1649024968.2,8179
882645,1649024968.202,8177
882646,1649024968.204,8176
882647,1649024968.206,8175
882648,1649024968.208,8174
882649,1649024968.21,8174
882650,1649024968.212,8172
882651,1649024968.214,8171
882652,1649024968.216,8170
882653,1649024968.218,8168
882654,1649024968.22,8167
882655,1649024968.222,8165
882656,1649024968.224,8164
882657,1649024968.226,8163
882658,1649024968.228,8162
882659,1649024968.23,8160
882660,1649024968.232,8159
882661,1649024968.234,8158
882662,1649024968.236,8157
882663,1649024968.238,8157
882664,1649024968.24,8158
882665,1649024968.242,8159
882666,1649024968.244,8160
882667,1649024968.246,8160
882668,1649024968.248,8160
882669,1649024968.25,8160
882670,1649024968.252,8160
882671,1649024968.254,8160
882672,1649024968.256,8161
882673,1649024968.258,8161
882674,1649024968.26,8161
882675,1649024968.262,8162
882676,1649024968.264,8162
882677,1649024968.266,8162
882678,1649024968.268,8162
882679,1649024968.27,8162
882680,1649024968.272,8162
882681,1649024968.274,8162
882682,1649024968.276,8162
882683,1649024968.278,8162
882684,1649024968.28,8162
882685,1649024968.282,8162
882686,1649024968.284,8162
882687,1649024968.286,8162
882688,1649024968.288,8162
882689,1649024968.29,8162
882690,1649024968.292,8162
882691,1649024968.294,8162
882692,1649024968.296,8162
882693,1649024968.298,8162
882694,1649024968.3,8162
882695,1649024968.302,8162
882696,1649024968.304,8162
882697,1649024968.306,8162
882698,1649024968.308,8162
882699,1649024968.31,8163
882700,1649024968.312,8163
882701,1649024968.314,8162
882702,1649024968.316,8162
882703,1649024968.318,8163
882704,1649024968.32,8163
882705,1649024968.322,8164
882706,1649024968.324,8164
882707,1649024968.326,8164
882708,1649024968.328,8164
882709,1649024968.33,8164
882710,1649024968.332,8164
882711,1649024968.334,8165
882712,1649024968.336,8165
882713,1649024968.338,8166
882714,1649024968.34,8167
882715,1649024968.342,8168
882716,1649024968.344,8168
882717,1649024968.346,8169
882718,1649024968.348,8169
882719,1649024968.35,8170
882720,1649024968.352,8171
882721,1649024968.354,8172
882722,1649024968.356,8173
882723,1649024968.358,8175
882724,1649024968.36,8176
882725,1649024968.362,8176
882726,1649024968.364,8177
882727,1649024968.366,8178
882728,1649024968.368,8179
882729,1649024968.37,8180
882730,1649024968.372,8181
882731,1649024968.374,8183
882732,1649024968.376,8184
882733,1649024968.378,8185
882734,1649024968.38,8186
882735,1649024968.382,8188
882736,1649024968.384,8189
882737,1649024968.386,8190
882738,1649024968.388,8192
882739,1649024968.39,8194
882740,1649024968.392,8196
882741,1649024968.394,8198
882742,1649024968.396,8200
882743,1649024968.398,8202
882744,1649024968.4,8204
882745,1649024968.402,8206
882746,1649024968.404,8209
882747,1649024968.406,8211
882748,1649024968.408,8214
882749,1649024968.41,8216
882750,1649024968.412,8219
882751,1649024968.414,8221
882752,1649024968.416,8223
882753,1649024968.418,8225
882754,1649024968.42,8227
882755,1649024968.422,8229
882756,1649024968.424,8231
882757,1649024968.426,8233
882758,1649024968.428,8235
882759,1649024968.43,8238
882760,1649024968.432,8240
882761,1649024968.434,8242
882762,1649024968.436,8244
882763,1649024968.438,8247
882764,1649024968.44,8249
882765,1649024968.442,8252
882766,1649024968.444,8254
882767,1649024968.446,8256
882768,1649024968.448,8259
882769,1649024968.45,8261
882770,1649024968.452,8264
882771,1649024968.454,8266
882772,1649024968.456,8269
882773,1649024968.458,8271
882774,1649024968.46,8273
882775,1649024968.462,8275
882776,1649024968.464,8277
882777,1649024968.466,8279
882778,1649024968.468,8281
882779,1649024968.47,8283
882780,1649024968.472,8285
882781,1649024968.474,8287
882782,1649024968.476,8289
882783,1649024968.478,8292
882784,1649024968.48,8294
882785,1649024968.482,8296
882786,1649024968.484,8299
882787,1649024968.486,8301
882788,1649024968.488,8302
882789,1649024968.49,8304
882790,1649024968.492,8306
882791,1649024968.494,8307
882792,1649024968.496,8309
882793,1649024968.498,8310
882794,1649024968.5,8311
882795,1649024968.502,8313
882796,1649024968.504,8314
882797,1649024968.506,8316
882798,1649024968.508,8316
882799,1649024968.51,8317
882800,1649024968.512,8318
882801,1649024968.514,8318
882802,1649024968.516,8319
882803,1649024968.518,8321
882804,1649024968.52,8322
882805,1649024968.522,8323
882806,1649024968.524,8325
882807,1649024968.526,8326
882808,1649024968.528,8327
882809,1649024968.53,8327
882810,1649024968.532,8328
882811,1649024968.534,8328
882812,1649024968.536,8328
882813,1649024968.538,8329
882814,1649024968.54,8330
882815,1649024968.542,8332
882816,1649024968.544,8333
882817,1649024968.546,8334
882818,1649024968.548,8335
882819,1649024968.55,8336
882820,1649024968.552,8336
882821,1649024968.554,8337
882822,1649024968.556,8338
882823,1649024968.558,8339
882824,1649024968.56,8341
882825,1649024968.562,8342
882826,1649024968.564,8344
882827,1649024968.566,8344
882828,1649024968.568,8345
882829,1649024968.57,8345
882830,1649024968.572,8346
882831,1649024968.574,8347
882832,1649024968.576,8348
882833,1649024968.578,8349
882834,1649024968.58,8349
882835,1649024968.582,8350
882836,1649024968.584,8350
882837,1649024968.586,8350
882838,1649024968.588,8350
882839,1649024968.59,8350
882840,1649024968.592,8350
882841,1649024968.594,8350
882842,1649024968.596,8350
882843,1649024968.598,8350
882844,1649024968.6,8350
882845,1649024968.602,8351
882846,1649024968.604,8351
882847,1649024968.606,8351
882848,1649024968.608,8352
882849,1649024968.61,8353
882850,1649024968.612,8353
882851,1649024968.614,8354
882852,1649024968.616,8354
882853,1649024968.618,8354
882854,1649024968.62,8354
882855,1649024968.622,8354
882856,1649024968.624,8354
882857,1649024968.626,8354
882858,1649024968.628,8354
882859,1649024968.63,8354
882860,1649024968.632,8354
882861,1649024968.634,8353
882862,1649024968.636,8353
882863,1649024968.638,8353
882864,1649024968.64,8352
882865,1649024968.642,8351
882866,1649024968.644,8350
882867,1649024968.646,8348
882868,1649024968.648,8346
882869,1649024968.65,8344
882870,1649024968.652,8341
882871,1649024968.654,8339
882872,1649024968.656,8336
882873,1649024968.658,8334
882874,1649024968.66,8332
882875,1649024968.662,8330
882876,1649024968.664,8329
882877,1649024968.666,8327
882878,1649024968.668,8324
882879,1649024968.67,8322
882880,1649024968.672,8319
882881,1649024968.674,8317
882882,1649024968.676,8315
882883,1649024968.678,8313
882884,1649024968.68,8311
882885,1649024968.682,8310
882886,1649024968.684,8309
882887,1649024968.686,8308
882888,1649024968.688,8307
882889,1649024968.69,8306
882890,1649024968.692,8305
882891,1649024968.694,8304
882892,1649024968.696,8303
882893,1649024968.698,8302
882894,1649024968.7,8301
882895,1649024968.702,8299
882896,1649024968.704,8297
882897,1649024968.706,8296
882898,1649024968.708,8294
882899,1649024968.71,8293
882900,1649024968.712,8291
882901,1649024968.714,8290
882902,1649024968.716,8287
882903,1649024968.718,8285
882904,1649024968.72,8283
882905,1649024968.722,8280
882906,1649024968.724,8278
882907,1649024968.726,8276
882908,1649024968.728,8273
882909,1649024968.73,8271
882910,1649024968.732,8269
882911,1649024968.734,8267
882912,1649024968.736,8265
882913,1649024968.738,8263
882914,1649024968.74,8260
882915,1649024968.742,8258
882916,1649024968.744,8255
882917,1649024968.746,8253
882918,1649024968.748,8250
882919,1649024968.75,8249
882920,1649024968.752,8247
882921,1649024968.754,8245
882922,1649024968.756,8243
882923,1649024968.758,8242
882924,1649024968.76,8241
882925,1649024968.762,8239
882926,1649024968.764,8237
882927,1649024968.766,8234
882928,1649024968.768,8231
882929,1649024968.77,8229
882930,1649024968.772,8226
882931,1649024968.774,8224
882932,1649024968.776,8221
882933,1649024968.778,8219
882934,1649024968.78,8217
882935,1649024968.782,8215
882936,1649024968.784,8213
882937,1649024968.786,8211
882938,1649024968.788,8209
882939,1649024968.79,8207
882940,1649024968.792,8206
882941,1649024968.794,8205
882942,1649024968.796,8204
882943,1649024968.798,8204
882944,1649024968.8,8204
882945,1649024968.802,8204
882946,1649024968.804,8205
882947,1649024968.806,8206
882948,1649024968.808,8207
882949,1649024968.81,8208
882950,1649024968.812,8208
882951,1649024968.814,8209
882952,1649024968.816,8208
882953,1649024968.818,8208
882954,1649024968.82,8208
882955,1649024968.822,8208
882956,1649024968.824,8209
882957,1649024968.826,8209
882958,1649024968.828,8209
882959,1649024968.83,8209
882960,1649024968.832,8209
882961,1649024968.834,8209
882962,1649024968.836,8209
882963,1649024968.838,8210
882964,1649024968.84,8211
882965,1649024968.842,8212
882966,1649024968.844,8213
882967,1649024968.846,8213
882968,1649024968.848,8214
882969,1649024968.85,8214
882970,1649024968.852,8215
882971,1649024968.854,8216
882972,1649024968.856,8217
882973,1649024968.858,8218
882974,1649024968.86,8218
882975,1649024968.862,8218
882976,1649024968.864,8218
882977,1649024968.866,8218
882978,1649024968.868,8218
882979,1649024968.87,8217
882980,1649024968.872,8217
882981,1649024968.874,8216
882982,1649024968.876,8216
882983,1649024968.878,8215
882984,1649024968.88,8214
882985,1649024968.882,8212
882986,1649024968.884,8211
882987,1649024968.886,8210
882988,1649024968.888,8209
882989,1649024968.89,8208
882990,1649024968.892,8208
882991,1649024968.894,8207
882992,1649024968.896,8206
882993,1649024968.898,8206
882994,1649024968.9,8205
882995,1649024968.902,8204
882996,1649024968.904,8204
882997,1649024968.906,8204
882998,1649024968.908,8204
882999,1649024968.91,8203
883000,1649024968.912,8203
883001,1649024968.914,8202
883002,1649024968.916,8202
883003,1649024968.918,8202
883004,1649024968.92,8202
883005,1649024968.922,8202
883006,1649024968.924,8202
883007,1649024968.926,8202
883008,1649024968.928,8201
883009,1649024968.93,8200
883010,1649024968.932,8200
883011,1649024968.934,8199
883012,1649024968.936,8198
883013,1649024968.938,8197
883014,1649024968.94,8197
883015,1649024968.942,8197
883016,1649024968.944,8198
883017,1649024968.946,8199
883018,1649024968.948,8199
883019,1649024968.95,8200
883020,1649024968.952,8201
883021,1649024968.954,8202
883022,1649024968.956,8203
883023,1649024968.958,8205
883024,1649024968.96,8206
883025,1649024968.962,8208
883026,1649024968.964,8208
883027,1649024968.966,8208
883028,1649024968.968,8209
883029,1649024968.97,8209
883030,1649024968.972,8209
883031,1649024968.974,8209
883032,1649024968.976,8209
883033,1649024968.978,8210
883034,1649024968.98,8210
883035,1649024968.982,8211
883036,1649024968.984,8211
883037,1649024968.986,8211
883038,1649024968.988,8211
883039,1649024968.99,8212
883040,1649024968.992,8213
883041,1649024968.994,8214
883042,1649024968.996,8216
883043,1649024968.998,8217
883044,1649024969.0,8218
883045,1649024969.002,8219
883046,1649024969.004,8220
883047,1649024969.006,8221
883048,1649024969.008,8221
883049,1649024969.01,8222
883050,1649024969.012,8222
883051,1649024969.014,8222
883052,1649024969.016,8223
883053,1649024969.018,8223
883054,1649024969.02,8224
883055,1649024969.022,8225
883056,1649024969.024,8225
883057,1649024969.026,8225
883058,1649024969.028,8224
883059,1649024969.03,8224
883060,1649024969.032,8224
883061,1649024969.034,8223
883062,1649024969.036,8223
883063,1649024969.038,8223
883064,1649024969.04,8223
883065,1649024969.042,8223
883066,1649024969.044,8222
883067,1649024969.046,8221
883068,1649024969.048,8220
883069,1649024969.05,8219
883070,1649024969.052,8218
883071,1649024969.054,8217
883072,1649024969.056,8216
883073,1649024969.058,8216
883074,1649024969.06,8215
883075,1649024969.062,8214
883076,1649024969.064,8213
883077,1649024969.066,8212
883078,1649024969.068,8211
883079,1649024969.07,8209
883080,1649024969.072,8208
883081,1649024969.074,8206
883082,1649024969.076,8205
883083,1649024969.078,8203
883084,1649024969.08,8201
883085,1649024969.082,8199
883086,1649024969.084,8196
883087,1649024969.086,8194
883088,1649024969.088,8192
883089,1649024969.09,8190
883090,1649024969.092,8188
883091,1649024969.094,8185
883092,1649024969.096,8183
883093,1649024969.098,8181
883094,1649024969.1,8179
883095,1649024969.102,8177
883096,1649024969.104,8176
883097,1649024969.106,8176
883098,1649024969.108,8175
883099,1649024969.11,8175
883100,1649024969.112,8174
883101,1649024969.114,8173
883102,1649024969.116,8172
883103,1649024969.118,8171
883104,1649024969.12,8170
883105,1649024969.122,8169
883106,1649024969.124,8168
883107,1649024969.126,8168
883108,1649024969.128,8168
883109,1649024969.13,8167
883110,1649024969.132,8167
883111,1649024969.134,8166
883112,1649024969.136,8166
883113,1649024969.138,8167
883114,1649024969.14,8167
883115,1649024969.142,8167
883116,1649024969.144,8167
883117,1649024969.146,8166
883118,1649024969.148,8166
883119,1649024969.15,8165
883120,1649024969.152,8165
883121,1649024969.154,8164
883122,1649024969.156,8163
883123,1649024969.158,8162
883124,1649024969.16,8162
883125,1649024969.162,8161
883126,1649024969.164,8160
883127,1649024969.166,8159
883128,1649024969.168,8158
883129,1649024969.17,8158
883130,1649024969.172,8157
883131,1649024969.174,8157
883132,1649024969.176,8157
883133,1649024969.178,8156
883134,1649024969.18,8156
883135,1649024969.182,8155
883136,1649024969.184,8155
883137,1649024969.186,8155
883138,1649024969.188,8155
883139,1649024969.19,8155
883140,1649024969.192,8155
883141,1649024969.194,8155
883142,1649024969.196,8155
883143,1649024969.198,8155
883144,1649024969.2,8154
883145,1649024969.202,8154
883146,1649024969.204,8154
883147,1649024969.206,8154
883148,1649024969.208,8154
883149,1649024969.21,8153
883150,1649024969.212,8153
883151,1649024969.214,8152
883152,1649024969.216,8152
883153,1649024969.218,8151
883154,1649024969.22,8151
883155,1649024969.222,8150
883156,1649024969.224,8149
883157,1649024969.226,8149
883158,1649024969.228,8149
883159,1649024969.23,8149
883160,1649024969.232,8148
883161,1649024969.234,8147
883162,1649024969.236,8147
883163,1649024969.238,8146
883164,1649024969.24,8146
883165,1649024969.242,8145
883166,1649024969.244,8145
883167,1649024969.246,8145
883168,1649024969.248,8145
883169,1649024969.25,8144
883170,1649024969.252,8143
883171,1649024969.254,8143
883172,1649024969.256,8142
883173,1649024969.258,8142
883174,1649024969.26,8141
883175,1649024969.262,8141
883176,1649024969.264,8141
883177,1649024969.266,8140
883178,1649024969.268,8140
883179,1649024969.27,8140
883180,1649024969.272,8140
883181,1649024969.274,8140
883182,1649024969.276,8140
883183,1649024969.278,8140
883184,1649024969.28,8141
883185,1649024969.282,8141
883186,1649024969.284,8141
883187,1649024969.286,8141
883188,1649024969.288,8142
883189,1649024969.29,8142
883190,1649024969.292,8143
883191,1649024969.294,8144
883192,1649024969.296,8145
883193,1649024969.298,8146
883194,1649024969.3,8146
883195,1649024969.302,8147
883196,1649024969.304,8147
883197,1649024969.306,8148
883198,1649024969.308,8149
883199,1649024969.31,8149
883200,1649024969.312,8149
883201,1649024969.314,8149
883202,1649024969.316,8149
883203,1649024969.318,8149
883204,1649024969.32,8149
883205,1649024969.322,8149
883206,1649024969.324,8149
883207,1649024969.326,8149
883208,1649024969.328,8148
883209,1649024969.33,8148
883210,1649024969.332,8148
883211,1649024969.334,8148
883212,1649024969.336,8148
883213,1649024969.338,8148
883214,1649024969.34,8148
883215,1649024969.342,8147
883216,1649024969.344,8147
883217,1649024969.346,8147
883218,1649024969.348,8147
883219,1649024969.35,8147
883220,1649024969.352,8147
883221,1649024969.354,8147
883222,1649024969.356,8146
883223,1649024969.358,8146
883224,1649024969.36,8146
883225,1649024969.362,8146
883226,1649024969.364,8146
883227,1649024969.366,8146
883228,1649024969.368,8146
883229,1649024969.37,8146
883230,1649024969.372,8147
883231,1649024969.374,8147
883232,1649024969.376,8147
883233,1649024969.378,8148
883234,1649024969.38,8148
883235,1649024969.382,8148
883236,1649024969.384,8148
883237,1649024969.386,8148
883238,1649024969.388,8148
883239,1649024969.39,8149
883240,1649024969.392,8149
883241,1649024969.394,8150
883242,1649024969.396,8150
883243,1649024969.398,8150
883244,1649024969.4,8150
883245,1649024969.402,8150
883246,1649024969.404,8150
883247,1649024969.406,8150
883248,1649024969.408,8150
883249,1649024969.41,8150
883250,1649024969.412,8150
883251,1649024969.414,8150
883252,1649024969.416,8150
883253,1649024969.418,8150
883254,1649024969.42,8150
883255,1649024969.422,8151
883256,1649024969.424,8151
883257,1649024969.426,8151
883258,1649024969.428,8151
883259,1649024969.43,8151
883260,1649024969.432,8151
883261,1649024969.434,8151
883262,1649024969.436,8151
883263,1649024969.438,8151
883264,1649024969.44,8151
883265,1649024969.442,8151
883266,1649024969.444,8150
883267,1649024969.446,8150
883268,1649024969.448,8149
883269,1649024969.45,8148
883270,1649024969.452,8148
883271,1649024969.454,8147
883272,1649024969.456,8147
883273,1649024969.458,8147
883274,1649024969.46,8147
883275,1649024969.462,8146
883276,1649024969.464,8145
883277,1649024969.466,8145
883278,1649024969.468,8144
883279,1649024969.47,8143
883280,1649024969.472,8144
883281,1649024969.474,8144
883282,1649024969.476,8144
883283,1649024969.478,8144
883284,1649024969.48,8144
883285,1649024969.482,8143
883286,1649024969.484,8143
883287,1649024969.486,8142
883288,1649024969.488,8142
883289,1649024969.49,8141
883290,1649024969.492,8141
883291,1649024969.494,8141
883292,1649024969.496,8141
883293,1649024969.498,8141
883294,1649024969.5,8140
883295,1649024969.502,8140
883296,1649024969.504,8140
883297,1649024969.506,8140
883298,1649024969.508,8141
883299,1649024969.51,8141
883300,1649024969.512,8140
883301,1649024969.514,8139
883302,1649024969.516,8138
883303,1649024969.518,8136
883304,1649024969.52,8135
883305,1649024969.522,8134
883306,1649024969.524,8133
883307,1649024969.526,8131
883308,1649024969.528,8130
883309,1649024969.53,8128
883310,1649024969.532,8127
883311,1649024969.534,8126
883312,1649024969.536,8125
883313,1649024969.538,8125
883314,1649024969.54,8124
883315,1649024969.542,8123
883316,1649024969.544,8122
883317,1649024969.546,8121
883318,1649024969.548,8119
883319,1649024969.55,8118
883320,1649024969.552,8116
883321,1649024969.554,8115
883322,1649024969.556,8114
883323,1649024969.558,8113
883324,1649024969.56,8111
883325,1649024969.562,8110
883326,1649024969.564,8109
883327,1649024969.566,8107
883328,1649024969.568,8105
883329,1649024969.57,8104
883330,1649024969.572,8102
883331,1649024969.574,8101
883332,1649024969.576,8100
883333,1649024969.578,8099
883334,1649024969.58,8098
883335,1649024969.582,8096
883336,1649024969.584,8095
883337,1649024969.586,8094
883338,1649024969.588,8093
883339,1649024969.59,8092
883340,1649024969.592,8091
883341,1649024969.594,8090
883342,1649024969.596,8089
883343,1649024969.598,8089
883344,1649024969.6,8088
883345,1649024969.602,8087
883346,1649024969.604,8086
883347,1649024969.606,8086
883348,1649024969.608,8086
883349,1649024969.61,8085
883350,1649024969.612,8084
883351,1649024969.614,8083
883352,1649024969.616,8082
883353,1649024969.618,8081
883354,1649024969.62,8080
883355,1649024969.622,8080
883356,1649024969.624,8080
883357,1649024969.626,8080
883358,1649024969.628,8080
883359,1649024969.63,8080
883360,1649024969.632,8080
883361,1649024969.634,8081
883362,1649024969.636,8082
883363,1649024969.638,8083
883364,1649024969.64,8083
883365,1649024969.642,8084
883366,1649024969.644,8085
883367,1649024969.646,8086
883368,1649024969.648,8086
883369,1649024969.65,8087
883370,1649024969.652,8088
883371,1649024969.654,8088
883372,1649024969.656,8089
883373,1649024969.658,8090
883374,1649024969.66,8090
883375,1649024969.662,8090
883376,1649024969.664,8090
883377,1649024969.666,8090
883378,1649024969.668,8090
883379,1649024969.67,8090
883380,1649024969.672,8091
883381,1649024969.674,8091
883382,1649024969.676,8092
883383,1649024969.678,8092
883384,1649024969.68,8092
883385,1649024969.682,8092
883386,1649024969.684,8092
883387,1649024969.686,8092
883388,1649024969.688,8092
883389,1649024969.69,8093
883390,1649024969.692,8093
883391,1649024969.694,8093
883392,1649024969.696,8094
883393,1649024969.698,8094
883394,1649024969.7,8094
883395,1649024969.702,8094
883396,1649024969.704,8095
883397,1649024969.706,8096
883398,1649024969.708,8096
883399,1649024969.71,8097
883400,1649024969.712,8099
883401,1649024969.714,8100
883402,1649024969.716,8102
883403,1649024969.718,8104
883404,1649024969.72,8107
883405,1649024969.722,8109
883406,1649024969.724,8111
883407,1649024969.726,8113
883408,1649024969.728,8116
883409,1649024969.73,8117
883410,1649024969.732,8119
883411,1649024969.734,8120
883412,1649024969.736,8122
883413,1649024969.738,8123
883414,1649024969.74,8124
883415,1649024969.742,8125
883416,1649024969.744,8126
883417,1649024969.746,8127
883418,1649024969.748,8128
883419,1649024969.75,8129
883420,1649024969.752,8130
883421,1649024969.754,8132
883422,1649024969.756,8134
883423,1649024969.758,8135
883424,1649024969.76,8137
883425,1649024969.762,8139
883426,1649024969.764,8141
883427,1649024969.766,8142
883428,1649024969.768,8144
883429,1649024969.77,8147
883430,1649024969.772,8149
883431,1649024969.774,8150
883432,1649024969.776,8152
883433,1649024969.778,8154
883434,1649024969.78,8157
883435,1649024969.782,8159
883436,1649024969.784,8161
883437,1649024969.786,8163
883438,1649024969.788,8165
883439,1649024969.79,8166
883440,1649024969.792,8168
883441,1649024969.794,8170
883442,1649024969.796,8171
883443,1649024969.798,8172
883444,1649024969.8,8173
883445,1649024969.802,8175
883446,1649024969.804,8176
883447,1649024969.806,8178
883448,1649024969.808,8179
883449,1649024969.81,8181
883450,1649024969.812,8184
883451,1649024969.814,8185
883452,1649024969.816,8187
883453,1649024969.818,8189
883454,1649024969.82,8190
883455,1649024969.822,8192
883456,1649024969.824,8195
883457,1649024969.826,8197
883458,1649024969.828,8199
883459,1649024969.83,8201
883460,1649024969.832,8204
883461,1649024969.834,8205
883462,1649024969.836,8207
883463,1649024969.838,8209
883464,1649024969.84,8211
883465,1649024969.842,8213
883466,1649024969.844,8215
883467,1649024969.846,8217
883468,1649024969.848,8218
883469,1649024969.85,8220
883470,1649024969.852,8222
883471,1649024969.854,8224
883472,1649024969.856,8227
883473,1649024969.858,8229
883474,1649024969.86,8231
883475,1649024969.862,8234
883476,1649024969.864,8237
883477,1649024969.866,8240
883478,1649024969.868,8244
883479,1649024969.87,8247
883480,1649024969.872,8249
883481,1649024969.874,8252
883482,1649024969.876,8255
883483,1649024969.878,8258
883484,1649024969.88,8261
883485,1649024969.882,8264
883486,1649024969.884,8266
883487,1649024969.886,8268
883488,1649024969.888,8271
883489,1649024969.89,8273
883490,1649024969.892,8276
883491,1649024969.894,8279
883492,1649024969.896,8281
883493,1649024969.898,8284
883494,1649024969.9,8287
883495,1649024969.902,8289
883496,1649024969.904,8292
883497,1649024969.906,8295
883498,1649024969.908,8298
883499,1649024969.91,8301
883500,1649024969.912,8303
883501,1649024969.914,8305
883502,1649024969.916,8308
883503,1649024969.918,8310
883504,1649024969.92,8313
883505,1649024969.922,8316
883506,1649024969.924,8319
883507,1649024969.926,8322
883508,1649024969.928,8324
883509,1649024969.93,8327
883510,1649024969.932,8329
883511,1649024969.934,8331
883512,1649024969.936,8333
883513,1649024969.938,8335
883514,1649024969.94,8338
883515,1649024969.942,8340
883516,1649024969.944,8342
883517,1649024969.946,8344
883518,1649024969.948,8346
883519,1649024969.95,8347
883520,1649024969.952,8348
883521,1649024969.954,8350
883522,1649024969.956,8351
883523,1649024969.958,8352
883524,1649024969.96,8352
883525,1649024969.962,8353
883526,1649024969.964,8354
883527,1649024969.966,8355
883528,1649024969.968,8356
883529,1649024969.97,8357
883530,1649024969.972,8357
883531,1649024969.974,8358
883532,1649024969.976,8359
883533,1649024969.978,8359
883534,1649024969.98,8359
883535,1649024969.982,8360
883536,1649024969.984,8360
883537,1649024969.986,8360
883538,1649024969.988,8361
883539,1649024969.99,8362
883540,1649024969.992,8362
883541,1649024969.994,8362
883542,1649024969.996,8361
883543,1649024969.998,8361
883544,1649024970.0,8360
883545,1649024970.002,8360
883546,1649024970.004,8360
883547,1649024970.006,8360
883548,1649024970.008,8361
883549,1649024970.01,8361
883550,1649024970.012,8361
883551,1649024970.014,8362
883552,1649024970.016,8362
883553,1649024970.018,8362
883554,1649024970.02,8361
883555,1649024970.022,8361
883556,1649024970.024,8360
883557,1649024970.026,8359
883558,1649024970.028,8357
883559,1649024970.03,8355
883560,1649024970.032,8353
883561,1649024970.034,8352
883562,1649024970.036,8351
883563,1649024970.038,8350
883564,1649024970.04,8349
883565,1649024970.042,8349
883566,1649024970.044,8348
883567,1649024970.046,8348
883568,1649024970.048,8348
883569,1649024970.05,8348
883570,1649024970.052,8348
883571,1649024970.054,8348
883572,1649024970.056,8347
883573,1649024970.058,8346
883574,1649024970.06,8345
883575,1649024970.062,8343
883576,1649024970.064,8342
883577,1649024970.066,8341
883578,1649024970.068,8339
883579,1649024970.07,8338
883580,1649024970.072,8337
883581,1649024970.074,8336
883582,1649024970.076,8335
883583,1649024970.078,8335
883584,1649024970.08,8334
883585,1649024970.082,8334
883586,1649024970.084,8333
883587,1649024970.086,8332
883588,1649024970.088,8331
883589,1649024970.09,8330
883590,1649024970.092,8329
883591,1649024970.094,8327
883592,1649024970.096,8326
883593,1649024970.098,8325
883594,1649024970.1,8324
883595,1649024970.102,8323
883596,1649024970.104,8321
883597,1649024970.106,8319
883598,1649024970.108,8317
883599,1649024970.11,8315
883600,1649024970.112,8313
883601,1649024970.114,8310
883602,1649024970.116,8308
883603,1649024970.118,8306
883604,1649024970.12,8304
883605,1649024970.122,8302
883606,1649024970.124,8300
883607,1649024970.126,8298
883608,1649024970.128,8296
883609,1649024970.13,8295
883610,1649024970.132,8293
883611,1649024970.134,8291
883612,1649024970.136,8290
883613,1649024970.138,8288
883614,1649024970.14,8287
883615,1649024970.142,8285
883616,1649024970.144,8284
883617,1649024970.146,8283
883618,1649024970.148,8281
883619,1649024970.15,8279
883620,1649024970.152,8277
883621,1649024970.154,8275
883622,1649024970.156,8273
883623,1649024970.158,8271
883624,1649024970.16,8269
883625,1649024970.162,8267
883626,1649024970.164,8266
883627,1649024970.166,8264
883628,1649024970.168,8262
883629,1649024970.17,8260
883630,1649024970.172,8258
883631,1649024970.174,8256
883632,1649024970.176,8254
883633,1649024970.178,8252
883634,1649024970.18,8251
883635,1649024970.182,8250
883636,1649024970.184,8248
883637,1649024970.186,8247
883638,1649024970.188,8246
883639,1649024970.19,8245
883640,1649024970.192,8245
883641,1649024970.194,8244
883642,1649024970.196,8242
883643,1649024970.198,8241
883644,1649024970.2,8239
883645,1649024970.202,8238
883646,1649024970.204,8236
883647,1649024970.206,8235
883648,1649024970.208,8234
883649,1649024970.21,8233
883650,1649024970.212,8231
883651,1649024970.214,8230
883652,1649024970.216,8228
883653,1649024970.218,8226
883654,1649024970.22,8224
883655,1649024970.222,8222
883656,1649024970.224,8219
883657,1649024970.226,8217
883658,1649024970.228,8215
883659,1649024970.23,8212
883660,1649024970.232,8209
883661,1649024970.234,8206
883662,1649024970.236,8204
883663,1649024970.238,8201
883664,1649024970.24,8198
883665,1649024970.242,8195
883666,1649024970.244,8192
883667,1649024970.246,8189
883668,1649024970.248,8186
883669,1649024970.25,8183
883670,1649024970.252,8181
883671,1649024970.254,8179
883672,1649024970.256,8177
883673,1649024970.258,8176
883674,1649024970.26,8175
883675,1649024970.262,8174
883676,1649024970.264,8172
883677,1649024970.266,8171
883678,1649024970.268,8169
883679,1649024970.27,8168
883680,1649024970.272,8167
883681,1649024970.274,8166
883682,1649024970.276,8165
883683,1649024970.278,8164
883684,1649024970.28,8163
883685,1649024970.282,8161
883686,1649024970.284,8160
883687,1649024970.286,8159
883688,1649024970.288,8158
883689,1649024970.29,8158
883690,1649024970.292,8157
883691,1649024970.294,8157
883692,1649024970.296,8157
883693,1649024970.298,8157
883694,1649024970.3,8157
883695,1649024970.302,8156
883696,1649024970.304,8156
883697,1649024970.306,8156
883698,1649024970.308,8156
883699,1649024970.31,8156
883700,1649024970.312,8156
883701,1649024970.314,8156
883702,1649024970.316,8156
883703,1649024970.318,8157
883704,1649024970.32,8157
883705,1649024970.322,8158
883706,1649024970.324,8160
883707,1649024970.326,8162
883708,1649024970.328,8166
883709,1649024970.33,8170
883710,1649024970.332,8174
883711,1649024970.334,8176
883712,1649024970.336,8176
883713,1649024970.338,8176
883714,1649024970.34,8175
883715,1649024970.342,8174
883716,1649024970.344,8174
883717,1649024970.346,8175
883718,1649024970.348,8175
883719,1649024970.35,8176
883720,1649024970.352,8177
883721,1649024970.354,8179
883722,1649024970.356,8180
883723,1649024970.358,8181
883724,1649024970.36,8181
883725,1649024970.362,8182
883726,1649024970.364,8183
883727,1649024970.366,8185
883728,1649024970.368,8186
883729,1649024970.37,8188
883730,1649024970.372,8189
883731,1649024970.374,8191
883732,1649024970.376,8193
883733,1649024970.378,8194
883734,1649024970.38,8196
883735,1649024970.382,8198
883736,1649024970.384,8199
883737,1649024970.386,8201
883738,1649024970.388,8203
883739,1649024970.39,8205
883740,1649024970.392,8207
883741,1649024970.394,8209
883742,1649024970.396,8211
883743,1649024970.398,8213
883744,1649024970.4,8214
883745,1649024970.402,8216
883746,1649024970.404,8217
883747,1649024970.406,8220
883748,1649024970.408,8222
883749,1649024970.41,8224
883750,1649024970.412,8226
883751,1649024970.414,8228
883752,1649024970.416,8230
883753,1649024970.418,8232
883754,1649024970.42,8234
883755,1649024970.422,8235
883756,1649024970.424,8236
883757,1649024970.426,8237
883758,1649024970.428,8238
883759,1649024970.43,8239
883760,1649024970.432,8240
883761,1649024970.434,8241
883762,1649024970.436,8243
883763,1649024970.438,8244
883764,1649024970.44,8246
883765,1649024970.442,8247
883766,1649024970.444,8248
883767,1649024970.446,8248
883768,1649024970.448,8249
883769,1649024970.45,8249
883770,1649024970.452,8250
883771,1649024970.454,8251
883772,1649024970.456,8252
883773,1649024970.458,8253
883774,1649024970.46,8254
883775,1649024970.462,8254
883776,1649024970.464,8254
883777,1649024970.466,8255
883778,1649024970.468,8254
883779,1649024970.47,8255
883780,1649024970.472,8255
883781,1649024970.474,8255
883782,1649024970.476,8254
883783,1649024970.478,8253
883784,1649024970.48,8252
883785,1649024970.482,8251
883786,1649024970.484,8250
883787,1649024970.486,8249
883788,1649024970.488,8247
883789,1649024970.49,8246
883790,1649024970.492,8244
883791,1649024970.494,8243
883792,1649024970.496,8241
883793,1649024970.498,8239
883794,1649024970.5,8237
883795,1649024970.502,8235
883796,1649024970.504,8233
883797,1649024970.506,8231
883798,1649024970.508,8230
883799,1649024970.51,8229
883800,1649024970.512,8228
883801,1649024970.514,8227
883802,1649024970.516,8226
883803,1649024970.518,8224
883804,1649024970.52,8223
883805,1649024970.522,8222
883806,1649024970.524,8220
883807,1649024970.526,8219
883808,1649024970.528,8218
883809,1649024970.53,8216
883810,1649024970.532,8215
883811,1649024970.534,8213
883812,1649024970.536,8212
883813,1649024970.538,8210
883814,1649024970.54,8208
883815,1649024970.542,8206
883816,1649024970.544,8204
883817,1649024970.546,8202
883818,1649024970.548,8200
883819,1649024970.55,8198
883820,1649024970.552,8196
883821,1649024970.554,8195
883822,1649024970.556,8193
883823,1649024970.558,8192
883824,1649024970.56,8190
883825,1649024970.562,8189
883826,1649024970.564,8187
883827,1649024970.566,8185
883828,1649024970.568,8184
883829,1649024970.57,8182
883830,1649024970.572,8180
883831,1649024970.574,8179
883832,1649024970.576,8178
883833,1649024970.578,8177
883834,1649024970.58,8176
883835,1649024970.582,8174
883836,1649024970.584,8173
883837,1649024970.586,8171
883838,1649024970.588,8170
883839,1649024970.59,8169
883840,1649024970.592,8167
883841,1649024970.594,8167
883842,1649024970.596,8166
883843,1649024970.598,8166
883844,1649024970.6,8165
883845,1649024970.602,8164
883846,1649024970.604,8163
883847,1649024970.606,8163
883848,1649024970.608,8162
883849,1649024970.61,8161
883850,1649024970.612,8160
883851,1649024970.614,8159
883852,1649024970.616,8158
883853,1649024970.618,8157
883854,1649024970.62,8157
883855,1649024970.622,8156
883856,1649024970.624,8155
883857,1649024970.626,8155
883858,1649024970.628,8154
883859,1649024970.63,8153
883860,1649024970.632,8153
883861,1649024970.634,8152
883862,1649024970.636,8151
883863,1649024970.638,8150
883864,1649024970.64,8150
883865,1649024970.642,8149
883866,1649024970.644,8149
883867,1649024970.646,8148
883868,1649024970.648,8146
883869,1649024970.65,8144
883870,1649024970.652,8143
883871,1649024970.654,8142
883872,1649024970.656,8141
883873,1649024970.658,8140
883874,1649024970.66,8139
883875,1649024970.662,8138
883876,1649024970.664,8136
883877,1649024970.666,8135
883878,1649024970.668,8134
883879,1649024970.67,8132
883880,1649024970.672,8131
883881,1649024970.674,8129
883882,1649024970.676,8128
883883,1649024970.678,8127
883884,1649024970.68,8125
883885,1649024970.682,8124
883886,1649024970.684,8123
883887,1649024970.686,8121
883888,1649024970.688,8120
883889,1649024970.69,8118
883890,1649024970.692,8116
883891,1649024970.694,8115
883892,1649024970.696,8114
883893,1649024970.698,8112
883894,1649024970.7,8111
883895,1649024970.702,8109
883896,1649024970.704,8108
883897,1649024970.706,8108
883898,1649024970.708,8107
883899,1649024970.71,8106
883900,1649024970.712,8106
883901,1649024970.714,8105
883902,1649024970.716,8104
883903,1649024970.718,8103
883904,1649024970.72,8102
883905,1649024970.722,8102
883906,1649024970.724,8102
883907,1649024970.726,8102
883908,1649024970.728,8102
883909,1649024970.73,8102
883910,1649024970.732,8102
883911,1649024970.734,8102
883912,1649024970.736,8103
883913,1649024970.738,8103
883914,1649024970.74,8103
883915,1649024970.742,8104
883916,1649024970.744,8105
883917,1649024970.746,8106
883918,1649024970.748,8107
883919,1649024970.75,8108
883920,1649024970.752,8108
883921,1649024970.754,8108
883922,1649024970.756,8109
883923,1649024970.758,8110
883924,1649024970.76,8111
883925,1649024970.762,8112
883926,1649024970.764,8113
883927,1649024970.766,8113
883928,1649024970.768,8114
883929,1649024970.77,8115
883930,1649024970.772,8115
883931,1649024970.774,8116
883932,1649024970.776,8116
883933,1649024970.778,8117
883934,1649024970.78,8117
883935,1649024970.782,8118
883936,1649024970.784,8119
883937,1649024970.786,8119
883938,1649024970.788,8120
883939,1649024970.79,8120
883940,1649024970.792,8120
883941,1649024970.794,8121
883942,1649024970.796,8121
883943,1649024970.798,8122
883944,1649024970.8,8123
883945,1649024970.802,8124
883946,1649024970.804,8125
883947,1649024970.806,8125
883948,1649024970.808,8126
883949,1649024970.81,8127
883950,1649024970.812,8128
883951,1649024970.814,8128
883952,1649024970.816,8129
883953,1649024970.818,8129
883954,1649024970.82,8130
883955,1649024970.822,8130
883956,1649024970.824,8131
883957,1649024970.826,8131
883958,1649024970.828,8132
883959,1649024970.83,8133
883960,1649024970.832,8134
883961,1649024970.834,8134
883962,1649024970.836,8134
883963,1649024970.838,8135
883964,1649024970.84,8136
883965,1649024970.842,8137
883966,1649024970.844,8139
883967,1649024970.846,8140
883968,1649024970.848,8141
883969,1649024970.85,8142
883970,1649024970.852,8143
883971,1649024970.854,8145
883972,1649024970.856,8146
883973,1649024970.858,8147
883974,1649024970.86,8148
883975,1649024970.862,8149
883976,1649024970.864,8150
883977,1649024970.866,8152
883978,1649024970.868,8153
883979,1649024970.87,8155
883980,1649024970.872,8156
883981,1649024970.874,8157
883982,1649024970.876,8159
883983,1649024970.878,8160
883984,1649024970.88,8161
883985,1649024970.882,8162
883986,1649024970.884,8162
883987,1649024970.886,8163
883988,1649024970.888,8164
883989,1649024970.89,8165
883990,1649024970.892,8165
883991,1649024970.894,8166
883992,1649024970.896,8167
883993,1649024970.898,8167
883994,1649024970.9,8168
883995,1649024970.902,8168
883996,1649024970.904,8169
883997,1649024970.906,8170
883998,1649024970.908,8170
883999,1649024970.91,8171
884000,1649024970.912,8171
884001,1649024970.914,8171
884002,1649024970.916,8172
884003,1649024970.918,8173
884004,1649024970.92,8174
884005,1649024970.922,8174
884006,1649024970.924,8175
884007,1649024970.926,8175
884008,1649024970.928,8176
884009,1649024970.93,8176
884010,1649024970.932,8176
884011,1649024970.934,8177
884012,1649024970.936,8177
884013,1649024970.938,8178
884014,1649024970.94,8179
884015,1649024970.942,8180
884016,1649024970.944,8180
884017,1649024970.946,8181
884018,1649024970.948,8182
884019,1649024970.95,8182
884020,1649024970.952,8183
884021,1649024970.954,8184
884022,1649024970.956,8185
884023,1649024970.958,8186
884024,1649024970.96,8187
884025,1649024970.962,8187
884026,1649024970.964,8187
884027,1649024970.966,8188
884028,1649024970.968,8188
884029,1649024970.97,8188
884030,1649024970.972,8188
884031,1649024970.974,8189
884032,1649024970.976,8189
884033,1649024970.978,8190
884034,1649024970.98,8190
884035,1649024970.982,8191
884036,1649024970.984,8191
884037,1649024970.986,8191
884038,1649024970.988,8191
884039,1649024970.99,8192
884040,1649024970.992,8192
884041,1649024970.994,8193
884042,1649024970.996,8193
884043,1649024970.998,8193
884044,1649024971.0,8193
884045,1649024971.002,8192
884046,1649024971.004,8192
884047,1649024971.006,8191
884048,1649024971.008,8191
884049,1649024971.01,8191
884050,1649024971.012,8191
884051,1649024971.014,8191
884052,1649024971.016,8191
884053,1649024971.018,8191
884054,1649024971.02,8190
884055,1649024971.022,8190
884056,1649024971.024,8190
884057,1649024971.026,8190
884058,1649024971.028,8190
884059,1649024971.03,8190
884060,1649024971.032,8189
884061,1649024971.034,8189
884062,1649024971.036,8189
884063,1649024971.038,8189
884064,1649024971.04,8189
884065,1649024971.042,8190
884066,1649024971.044,8190
884067,1649024971.046,8191
884068,1649024971.048,8192
884069,1649024971.05,8192
884070,1649024971.052,8192
884071,1649024971.054,8192
884072,1649024971.056,8193
884073,1649024971.058,8193
884074,1649024971.06,8194
884075,1649024971.062,8194
884076,1649024971.064,8194
884077,1649024971.066,8193
884078,1649024971.068,8193
884079,1649024971.07,8193
884080,1649024971.072,8194
884081,1649024971.074,8194
884082,1649024971.076,8194
884083,1649024971.078,8194
884084,1649024971.08,8194
884085,1649024971.082,8195
884086,1649024971.084,8195
884087,1649024971.086,8195
884088,1649024971.088,8194
884089,1649024971.09,8194
884090,1649024971.092,8194
884091,1649024971.094,8195
884092,1649024971.096,8195
884093,1649024971.098,8195
884094,1649024971.1,8195
884095,1649024971.102,8195
884096,1649024971.104,8195
884097,1649024971.106,8195
884098,1649024971.108,8196
884099,1649024971.11,8196
884100,1649024971.112,8196
884101,1649024971.114,8197
884102,1649024971.116,8197
884103,1649024971.118,8198
884104,1649024971.12,8199
884105,1649024971.122,8201
884106,1649024971.124,8202
884107,1649024971.126,8203
884108,1649024971.128,8204
884109,1649024971.13,8204
884110,1649024971.132,8205
884111,1649024971.134,8206
884112,1649024971.136,8206
884113,1649024971.138,8207
884114,1649024971.14,8208
884115,1649024971.142,8209
884116,1649024971.144,8210
884117,1649024971.146,8210
884118,1649024971.148,8210
884119,1649024971.15,8210
884120,1649024971.152,8210
884121,1649024971.154,8210
884122,1649024971.156,8211
884123,1649024971.158,8211
884124,1649024971.16,8211
884125,1649024971.162,8212
884126,1649024971.164,8211
884127,1649024971.166,8211
884128,1649024971.168,8211
884129,1649024971.17,8211
884130,1649024971.172,8211
884131,1649024971.174,8211
884132,1649024971.176,8211
884133,1649024971.178,8211
884134,1649024971.18,8211
884135,1649024971.182,8211
884136,1649024971.184,8210
884137,1649024971.186,8210
884138,1649024971.188,8209
884139,1649024971.19,8209
884140,1649024971.192,8208
884141,1649024971.194,8208
884142,1649024971.196,8207
884143,1649024971.198,8206
884144,1649024971.2,8205
884145,1649024971.202,8205
884146,1649024971.204,8204
884147,1649024971.206,8204
884148,1649024971.208,8204
884149,1649024971.21,8203
884150,1649024971.212,8202
884151,1649024971.214,8202
884152,1649024971.216,8201
884153,1649024971.218,8200
884154,1649024971.22,8199
884155,1649024971.222,8198
884156,1649024971.224,8198
884157,1649024971.226,8198
884158,1649024971.228,8197
884159,1649024971.23,8197
884160,1649024971.232,8196
884161,1649024971.234,8196
884162,1649024971.236,8196
884163,1649024971.238,8196
884164,1649024971.24,8196
884165,1649024971.242,8196
884166,1649024971.244,8196
884167,1649024971.246,8196
884168,1649024971.248,8196
884169,1649024971.25,8196
884170,1649024971.252,8196
884171,1649024971.254,8196
884172,1649024971.256,8196
884173,1649024971.258,8197
884174,1649024971.26,8197
884175,1649024971.262,8197
884176,1649024971.264,8198
884177,1649024971.266,8199
884178,1649024971.268,8199
884179,1649024971.27,8200
884180,1649024971.272,8201
884181,1649024971.274,8201
884182,1649024971.276,8202
884183,1649024971.278,8202
884184,1649024971.28,8203
884185,1649024971.282,8204
884186,1649024971.284,8204
884187,1649024971.286,8205
884188,1649024971.288,8206
884189,1649024971.29,8207
884190,1649024971.292,8208
884191,1649024971.294,8209
884192,1649024971.296,8211
884193,1649024971.298,8212
884194,1649024971.3,8212
884195,1649024971.302,8213
884196,1649024971.304,8214
884197,1649024971.306,8214
884198,1649024971.308,8215
884199,1649024971.31,8215
884200,1649024971.312,8216
884201,1649024971.314,8217
884202,1649024971.316,8217
884203,1649024971.318,8218
884204,1649024971.32,8219
884205,1649024971.322,8219
884206,1649024971.324,8220
884207,1649024971.326,8221
884208,1649024971.328,8221
884209,1649024971.33,8221
884210,1649024971.332,8221
884211,1649024971.334,8221
884212,1649024971.336,8222
884213,1649024971.338,8222
884214,1649024971.34,8222
884215,1649024971.342,8221
884216,1649024971.344,8221
884217,1649024971.346,8221
884218,1649024971.348,8221
884219,1649024971.35,8221
884220,1649024971.352,8220
884221,1649024971.354,8220
884222,1649024971.356,8221
884223,1649024971.358,8221
884224,1649024971.36,8221
884225,1649024971.362,8222
884226,1649024971.364,8223
884227,1649024971.366,8224
884228,1649024971.368,8225
884229,1649024971.37,8226
884230,1649024971.372,8227
884231,1649024971.374,8228
884232,1649024971.376,8229
884233,1649024971.378,8230
884234,1649024971.38,8232
884235,1649024971.382,8233
884236,1649024971.384,8235
884237,1649024971.386,8237
884238,1649024971.388,8238
884239,1649024971.39,8240
884240,1649024971.392,8241
884241,1649024971.394,8242
884242,1649024971.396,8243
884243,1649024971.398,8243
884244,1649024971.4,8244
884245,1649024971.402,8243
884246,1649024971.404,8243
884247,1649024971.406,8243
884248,1649024971.408,8242
884249,1649024971.41,8242
884250,1649024971.412,8242
884251,1649024971.414,8243
884252,1649024971.416,8243
884253,1649024971.418,8244
884254,1649024971.42,8244
884255,1649024971.422,8244
884256,1649024971.424,8245
884257,1649024971.426,8245
884258,1649024971.428,8245
884259,1649024971.43,8244
884260,1649024971.432,8243
884261,1649024971.434,8242
884262,1649024971.436,8240
884263,1649024971.438,8239
884264,1649024971.44,8238
884265,1649024971.442,8236
884266,1649024971.444,8235
884267,1649024971.446,8233
884268,1649024971.448,8231
884269,1649024971.45,8230
884270,1649024971.452,8228
884271,1649024971.454,8226
884272,1649024971.456,8224
884273,1649024971.458,8224
884274,1649024971.46,8224
884275,1649024971.462,8224
884276,1649024971.464,8224
884277,1649024971.466,8225
884278,1649024971.468,8226
884279,1649024971.47,8227
884280,1649024971.472,8228
884281,1649024971.474,8229
884282,1649024971.476,8230
884283,1649024971.478,8231
884284,1649024971.48,8232
884285,1649024971.482,8233
884286,1649024971.484,8233
884287,1649024971.486,8234
884288,1649024971.488,8234
884289,1649024971.49,8234
884290,1649024971.492,8233
884291,1649024971.494,8233
884292,1649024971.496,8233
884293,1649024971.498,8233
884294,1649024971.5,8233
884295,1649024971.502,8233
884296,1649024971.504,8233
884297,1649024971.506,8233
884298,1649024971.508,8233
884299,1649024971.51,8234
884300,1649024971.512,8234
884301,1649024971.514,8233
884302,1649024971.516,8233
884303,1649024971.518,8234
884304,1649024971.52,8233
884305,1649024971.522,8232
884306,1649024971.524,8232
884307,1649024971.526,8232
884308,1649024971.528,8232
884309,1649024971.53,8232
884310,1649024971.532,8233
884311,1649024971.534,8234
884312,1649024971.536,8234
884313,1649024971.538,8235
884314,1649024971.54,8236
884315,1649024971.542,8237
884316,1649024971.544,8238
884317,1649024971.546,8239
884318,1649024971.548,8240
884319,1649024971.55,8241
884320,1649024971.552,8241
884321,1649024971.554,8242
884322,1649024971.556,8243
884323,1649024971.558,8243
884324,1649024971.56,8244
884325,1649024971.562,8245
884326,1649024971.564,8245
884327,1649024971.566,8245
884328,1649024971.568,8245
884329,1649024971.57,8245
884330,1649024971.572,8245
884331,1649024971.574,8246
884332,1649024971.576,8245
884333,1649024971.578,8245
884334,1649024971.58,8244
884335,1649024971.582,8244
884336,1649024971.584,8244
884337,1649024971.586,8244
884338,1649024971.588,8245
884339,1649024971.59,8246
884340,1649024971.592,8247
884341,1649024971.594,8248
884342,1649024971.596,8249
884343,1649024971.598,8250
884344,1649024971.6,8251
884345,1649024971.602,8252
884346,1649024971.604,8253
884347,1649024971.606,8254
884348,1649024971.608,8255
884349,1649024971.61,8255
884350,1649024971.612,8257
884351,1649024971.614,8258
884352,1649024971.616,8259
884353,1649024971.618,8260
884354,1649024971.62,8260
884355,1649024971.622,8260
884356,1649024971.624,8261
884357,1649024971.626,8261
884358,1649024971.628,8262
884359,1649024971.63,8263
884360,1649024971.632,8263
884361,1649024971.634,8264
884362,1649024971.636,8265
884363,1649024971.638,8265
884364,1649024971.64,8265
884365,1649024971.642,8265
884366,1649024971.644,8265
884367,1649024971.646,8265
884368,1649024971.648,8265
884369,1649024971.65,8264
884370,1649024971.652,8263
884371,1649024971.654,8261
884372,1649024971.656,8260
884373,1649024971.658,8258
884374,1649024971.66,8257
884375,1649024971.662,8255
884376,1649024971.664,8252
884377,1649024971.666,8249
884378,1649024971.668,8246
884379,1649024971.67,8243
884380,1649024971.672,8241
884381,1649024971.674,8239
884382,1649024971.676,8237
884383,1649024971.678,8234
884384,1649024971.68,8232
884385,1649024971.682,8230
884386,1649024971.684,8227
884387,1649024971.686,8225
884388,1649024971.688,8222
884389,1649024971.69,8219
884390,1649024971.692,8217
884391,1649024971.694,8215
884392,1649024971.696,8212
884393,1649024971.698,8210
884394,1649024971.7,8208
884395,1649024971.702,8206
884396,1649024971.704,8204
884397,1649024971.706,8202
884398,1649024971.708,8200
884399,1649024971.71,8198
884400,1649024971.712,8197
884401,1649024971.714,8195
884402,1649024971.716,8194
884403,1649024971.718,8192
884404,1649024971.72,8192
884405,1649024971.722,8191
884406,1649024971.724,8189
884407,1649024971.726,8188
884408,1649024971.728,8187
884409,1649024971.73,8186
884410,1649024971.732,8185
884411,1649024971.734,8184
884412,1649024971.736,8182
884413,1649024971.738,8181
884414,1649024971.74,8180
884415,1649024971.742,8180
884416,1649024971.744,8180
884417,1649024971.746,8180
884418,1649024971.748,8179
884419,1649024971.75,8179
884420,1649024971.752,8178
884421,1649024971.754,8177
884422,1649024971.756,8177
884423,1649024971.758,8176
884424,1649024971.76,8176
884425,1649024971.762,8175
884426,1649024971.764,8175
884427,1649024971.766,8174
884428,1649024971.768,8173
884429,1649024971.77,8173
884430,1649024971.772,8172
884431,1649024971.774,8171
884432,1649024971.776,8170
884433,1649024971.778,8169
884434,1649024971.78,8167
884435,1649024971.782,8166
884436,1649024971.784,8164
884437,1649024971.786,8163
884438,1649024971.788,8162
884439,1649024971.79,8161
884440,1649024971.792,8160
884441,1649024971.794,8159
884442,1649024971.796,8158
884443,1649024971.798,8157
884444,1649024971.8,8156
884445,1649024971.802,8155
884446,1649024971.804,8155
884447,1649024971.806,8153
884448,1649024971.808,8152
884449,1649024971.81,8150
884450,1649024971.812,8149
884451,1649024971.814,8147
884452,1649024971.816,8146
884453,1649024971.818,8144
884454,1649024971.82,8142
884455,1649024971.822,8140
884456,1649024971.824,8138
884457,1649024971.826,8135
884458,1649024971.828,8133
884459,1649024971.83,8131
884460,1649024971.832,8129
884461,1649024971.834,8126
884462,1649024971.836,8123
884463,1649024971.838,8121
884464,1649024971.84,8119
884465,1649024971.842,8117
884466,1649024971.844,8115
884467,1649024971.846,8112
884468,1649024971.848,8110
884469,1649024971.85,8108
884470,1649024971.852,8107
884471,1649024971.854,8105
884472,1649024971.856,8104
884473,1649024971.858,8103
884474,1649024971.86,8102
884475,1649024971.862,8101
884476,1649024971.864,8100
884477,1649024971.866,8099
884478,1649024971.868,8098
884479,1649024971.87,8098
