,times,values
2640000,1651136328.304,8181
2640001,1651136328.306,8181
2640002,1651136328.308,8181
2640003,1651136328.31,8180
2640004,1651136328.312,8182
2640005,1651136328.314,8188
2640006,1651136328.316,8200
2640007,1651136328.318,8223
2640008,1651136328.32,8260
2640009,1651136328.322,8309
2640010,1651136328.324,8366
2640011,1651136328.326,8425
2640012,1651136328.328,8487
2640013,1651136328.33,8542
2640014,1651136328.332,8570
2640015,1651136328.334,8539
2640016,1651136328.336,8439
2640017,1651136328.338,8295
2640018,1651136328.34,8149
2640019,1651136328.342,8030
2640020,1651136328.344,7952
2640021,1651136328.346,7914
2640022,1651136328.348,7909
2640023,1651136328.35,7930
2640024,1651136328.352,7966
2640025,1651136328.354,8009
2640026,1651136328.356,8050
2640027,1651136328.358,8086
2640028,1651136328.36,8115
2640029,1651136328.362,8135
2640030,1651136328.364,8147
2640031,1651136328.366,8153
2640032,1651136328.368,8155
2640033,1651136328.37,8156
2640034,1651136328.372,8156
2640035,1651136328.374,8157
2640036,1651136328.376,8157
2640037,1651136328.378,8158
2640038,1651136328.38,8159
2640039,1651136328.382,8160
2640040,1651136328.384,8160
2640041,1651136328.386,8160
2640042,1651136328.388,8161
2640043,1651136328.39,8161
2640044,1651136328.392,8162
2640045,1651136328.394,8162
2640046,1651136328.396,8162
2640047,1651136328.398,8161
2640048,1651136328.4,8161
2640049,1651136328.402,8161
2640050,1651136328.404,8161
2640051,1651136328.406,8161
2640052,1651136328.408,8161
2640053,1651136328.41,8161
2640054,1651136328.412,8161
2640055,1651136328.414,8161
2640056,1651136328.416,8161
2640057,1651136328.418,8160
2640058,1651136328.42,8160
2640059,1651136328.422,8160
2640060,1651136328.424,8160
2640061,1651136328.426,8160
2640062,1651136328.428,8160
2640063,1651136328.43,8160
2640064,1651136328.432,8160
2640065,1651136328.434,8161
2640066,1651136328.436,8161
2640067,1651136328.438,8162
2640068,1651136328.44,8163
2640069,1651136328.442,8164
2640070,1651136328.444,8165
2640071,1651136328.446,8167
2640072,1651136328.448,8169
2640073,1651136328.45,8172
2640074,1651136328.452,8174
2640075,1651136328.454,8177
2640076,1651136328.456,8180
2640077,1651136328.458,8182
2640078,1651136328.46,8185
2640079,1651136328.462,8188
2640080,1651136328.464,8191
2640081,1651136328.466,8194
2640082,1651136328.468,8196
2640083,1651136328.47,8198
2640084,1651136328.472,8199
2640085,1651136328.474,8201
2640086,1651136328.476,8203
2640087,1651136328.478,8204
2640088,1651136328.48,8205
2640089,1651136328.482,8206
2640090,1651136328.484,8207
2640091,1651136328.486,8208
2640092,1651136328.488,8210
2640093,1651136328.49,8211
2640094,1651136328.492,8214
2640095,1651136328.494,8217
2640096,1651136328.496,8220
2640097,1651136328.498,8223
2640098,1651136328.5,8225
2640099,1651136328.502,8227
2640100,1651136328.504,8228
2640101,1651136328.506,8230
2640102,1651136328.508,8231
2640103,1651136328.51,8232
2640104,1651136328.512,8233
2640105,1651136328.514,8234
2640106,1651136328.516,8236
2640107,1651136328.518,8239
2640108,1651136328.52,8242
2640109,1651136328.522,8243
2640110,1651136328.524,8244
2640111,1651136328.526,8243
2640112,1651136328.528,8241
2640113,1651136328.53,8239
2640114,1651136328.532,8238
2640115,1651136328.534,8240
2640116,1651136328.536,8242
2640117,1651136328.538,8244
2640118,1651136328.54,8244
2640119,1651136328.542,8243
2640120,1651136328.544,8241
2640121,1651136328.546,8238
2640122,1651136328.548,8236
2640123,1651136328.55,8233
2640124,1651136328.552,8231
2640125,1651136328.554,8228
2640126,1651136328.556,8225
2640127,1651136328.558,8223
2640128,1651136328.56,8220
2640129,1651136328.562,8216
2640130,1651136328.564,8212
2640131,1651136328.566,8209
2640132,1651136328.568,8205
2640133,1651136328.57,8203
2640134,1651136328.572,8201
2640135,1651136328.574,8199
2640136,1651136328.576,8197
2640137,1651136328.578,8195
2640138,1651136328.58,8193
2640139,1651136328.582,8191
2640140,1651136328.584,8189
2640141,1651136328.586,8188
2640142,1651136328.588,8188
2640143,1651136328.59,8187
2640144,1651136328.592,8186
2640145,1651136328.594,8185
2640146,1651136328.596,8185
2640147,1651136328.598,8184
2640148,1651136328.6,8183
2640149,1651136328.602,8182
2640150,1651136328.604,8181
2640151,1651136328.606,8180
2640152,1651136328.608,8180
2640153,1651136328.61,8179
2640154,1651136328.612,8178
2640155,1651136328.614,8178
2640156,1651136328.616,8177
2640157,1651136328.618,8177
2640158,1651136328.62,8176
2640159,1651136328.622,8176
2640160,1651136328.624,8176
2640161,1651136328.626,8176
2640162,1651136328.628,8176
2640163,1651136328.63,8176
2640164,1651136328.632,8175
2640165,1651136328.634,8175
2640166,1651136328.636,8175
2640167,1651136328.638,8175
2640168,1651136328.64,8175
2640169,1651136328.642,8175
2640170,1651136328.644,8175
2640171,1651136328.646,8175
2640172,1651136328.648,8175
2640173,1651136328.65,8176
2640174,1651136328.652,8176
2640175,1651136328.654,8176
2640176,1651136328.656,8176
2640177,1651136328.658,8176
2640178,1651136328.66,8176
2640179,1651136328.662,8177
2640180,1651136328.664,8178
2640181,1651136328.666,8178
2640182,1651136328.668,8179
2640183,1651136328.67,8180
2640184,1651136328.672,8182
2640185,1651136328.674,8187
2640186,1651136328.676,8198
2640187,1651136328.678,8219
2640188,1651136328.68,8253
2640189,1651136328.682,8301
2640190,1651136328.684,8358
2640191,1651136328.686,8421
2640192,1651136328.688,8487
2640193,1651136328.69,8544
2640194,1651136328.692,8567
2640195,1651136328.694,8532
2640196,1651136328.696,8436
2640197,1651136328.698,8300
2640198,1651136328.7,8158
2640199,1651136328.702,8040
2640200,1651136328.704,7959
2640201,1651136328.706,7917
2640202,1651136328.708,7911
2640203,1651136328.71,7933
2640204,1651136328.712,7970
2640205,1651136328.714,8013
2640206,1651136328.716,8053
2640207,1651136328.718,8087
2640208,1651136328.72,8114
2640209,1651136328.722,8133
2640210,1651136328.724,8145
2640211,1651136328.726,8151
2640212,1651136328.728,8154
2640213,1651136328.73,8155
2640214,1651136328.732,8155
2640215,1651136328.734,8155
2640216,1651136328.736,8156
2640217,1651136328.738,8157
2640218,1651136328.74,8157
2640219,1651136328.742,8157
2640220,1651136328.744,8158
2640221,1651136328.746,8159
2640222,1651136328.748,8159
2640223,1651136328.75,8159
2640224,1651136328.752,8159
2640225,1651136328.754,8159
2640226,1651136328.756,8159
2640227,1651136328.758,8159
2640228,1651136328.76,8159
2640229,1651136328.762,8159
2640230,1651136328.764,8159
2640231,1651136328.766,8159
2640232,1651136328.768,8159
2640233,1651136328.77,8158
2640234,1651136328.772,8157
2640235,1651136328.774,8157
2640236,1651136328.776,8157
2640237,1651136328.778,8157
2640238,1651136328.78,8157
2640239,1651136328.782,8157
2640240,1651136328.784,8157
2640241,1651136328.786,8156
2640242,1651136328.788,8156
2640243,1651136328.79,8156
2640244,1651136328.792,8156
2640245,1651136328.794,8157
2640246,1651136328.796,8158
2640247,1651136328.798,8158
2640248,1651136328.8,8160
2640249,1651136328.802,8161
2640250,1651136328.804,8163
2640251,1651136328.806,8164
2640252,1651136328.808,8166
2640253,1651136328.81,8168
2640254,1651136328.812,8171
2640255,1651136328.814,8173
2640256,1651136328.816,8177
2640257,1651136328.818,8180
2640258,1651136328.82,8183
2640259,1651136328.822,8186
2640260,1651136328.824,8188
2640261,1651136328.826,8191
2640262,1651136328.828,8193
2640263,1651136328.83,8196
2640264,1651136328.832,8197
2640265,1651136328.834,8199
2640266,1651136328.836,8201
2640267,1651136328.838,8202
2640268,1651136328.84,8203
2640269,1651136328.842,8204
2640270,1651136328.844,8206
2640271,1651136328.846,8207
2640272,1651136328.848,8209
2640273,1651136328.85,8210
2640274,1651136328.852,8212
2640275,1651136328.854,8215
2640276,1651136328.856,8217
2640277,1651136328.858,8219
2640278,1651136328.86,8221
2640279,1651136328.862,8223
2640280,1651136328.864,8226
2640281,1651136328.866,8228
2640282,1651136328.868,8229
2640283,1651136328.87,8230
2640284,1651136328.872,8230
2640285,1651136328.874,8231
2640286,1651136328.876,8233
2640287,1651136328.878,8236
2640288,1651136328.88,8240
2640289,1651136328.882,8241
2640290,1651136328.884,8241
2640291,1651136328.886,8240
2640292,1651136328.888,8238
2640293,1651136328.89,8236
2640294,1651136328.892,8236
2640295,1651136328.894,8238
2640296,1651136328.896,8240
2640297,1651136328.898,8242
2640298,1651136328.9,8243
2640299,1651136328.902,8242
2640300,1651136328.904,8240
2640301,1651136328.906,8237
2640302,1651136328.908,8234
2640303,1651136328.91,8231
2640304,1651136328.912,8229
2640305,1651136328.914,8226
2640306,1651136328.916,8224
2640307,1651136328.918,8222
2640308,1651136328.92,8219
2640309,1651136328.922,8216
2640310,1651136328.924,8212
2640311,1651136328.926,8208
2640312,1651136328.928,8205
2640313,1651136328.93,8202
2640314,1651136328.932,8200
2640315,1651136328.934,8198
2640316,1651136328.936,8196
2640317,1651136328.938,8194
2640318,1651136328.94,8192
2640319,1651136328.942,8190
2640320,1651136328.944,8188
2640321,1651136328.946,8187
2640322,1651136328.948,8186
2640323,1651136328.95,8185
2640324,1651136328.952,8184
2640325,1651136328.954,8183
2640326,1651136328.956,8182
2640327,1651136328.958,8181
2640328,1651136328.96,8180
2640329,1651136328.962,8180
2640330,1651136328.964,8180
2640331,1651136328.966,8179
2640332,1651136328.968,8178
2640333,1651136328.97,8177
2640334,1651136328.972,8176
2640335,1651136328.974,8175
2640336,1651136328.976,8174
2640337,1651136328.978,8173
2640338,1651136328.98,8173
2640339,1651136328.982,8173
2640340,1651136328.984,8173
2640341,1651136328.986,8173
2640342,1651136328.988,8173
2640343,1651136328.99,8172
2640344,1651136328.992,8171
2640345,1651136328.994,8171
2640346,1651136328.996,8171
2640347,1651136328.998,8171
2640348,1651136329.0,8172
2640349,1651136329.002,8172
2640350,1651136329.004,8171
2640351,1651136329.006,8171
2640352,1651136329.008,8171
2640353,1651136329.01,8171
2640354,1651136329.012,8172
2640355,1651136329.014,8172
2640356,1651136329.016,8173
2640357,1651136329.018,8174
2640358,1651136329.02,8175
2640359,1651136329.022,8176
2640360,1651136329.024,8176
2640361,1651136329.026,8176
2640362,1651136329.028,8175
2640363,1651136329.03,8175
2640364,1651136329.032,8178
2640365,1651136329.034,8184
2640366,1651136329.036,8198
2640367,1651136329.038,8223
2640368,1651136329.04,8262
2640369,1651136329.042,8313
2640370,1651136329.044,8369
2640371,1651136329.046,8428
2640372,1651136329.048,8492
2640373,1651136329.05,8548
2640374,1651136329.052,8571
2640375,1651136329.054,8532
2640376,1651136329.056,8424
2640377,1651136329.058,8275
2640378,1651136329.06,8127
2640379,1651136329.062,8011
2640380,1651136329.064,7937
2640381,1651136329.066,7905
2640382,1651136329.068,7905
2640383,1651136329.07,7931
2640384,1651136329.072,7970
2640385,1651136329.074,8012
2640386,1651136329.076,8052
2640387,1651136329.078,8086
2640388,1651136329.08,8113
2640389,1651136329.082,8131
2640390,1651136329.084,8142
2640391,1651136329.086,8147
2640392,1651136329.088,8149
2640393,1651136329.09,8149
2640394,1651136329.092,8150
2640395,1651136329.094,8150
2640396,1651136329.096,8151
2640397,1651136329.098,8152
2640398,1651136329.1,8153
2640399,1651136329.102,8154
2640400,1651136329.104,8155
2640401,1651136329.106,8155
2640402,1651136329.108,8156
2640403,1651136329.11,8156
2640404,1651136329.112,8156
2640405,1651136329.114,8156
2640406,1651136329.116,8156
2640407,1651136329.118,8156
2640408,1651136329.12,8156
2640409,1651136329.122,8156
2640410,1651136329.124,8155
2640411,1651136329.126,8156
2640412,1651136329.128,8156
2640413,1651136329.13,8156
2640414,1651136329.132,8156
2640415,1651136329.134,8156
2640416,1651136329.136,8156
2640417,1651136329.138,8155
2640418,1651136329.14,8155
2640419,1651136329.142,8155
2640420,1651136329.144,8155
2640421,1651136329.146,8155
2640422,1651136329.148,8155
2640423,1651136329.15,8155
2640424,1651136329.152,8156
2640425,1651136329.154,8157
2640426,1651136329.156,8157
2640427,1651136329.158,8158
2640428,1651136329.16,8159
2640429,1651136329.162,8161
2640430,1651136329.164,8162
2640431,1651136329.166,8164
2640432,1651136329.168,8166
2640433,1651136329.17,8169
2640434,1651136329.172,8171
2640435,1651136329.174,8174
2640436,1651136329.176,8176
2640437,1651136329.178,8179
2640438,1651136329.18,8181
2640439,1651136329.182,8184
2640440,1651136329.184,8187
2640441,1651136329.186,8190
2640442,1651136329.188,8193
2640443,1651136329.19,8196
2640444,1651136329.192,8198
2640445,1651136329.194,8199
2640446,1651136329.196,8200
2640447,1651136329.198,8201
2640448,1651136329.2,8202
2640449,1651136329.202,8203
2640450,1651136329.204,8204
2640451,1651136329.206,8205
2640452,1651136329.208,8207
2640453,1651136329.21,8209
2640454,1651136329.212,8212
2640455,1651136329.214,8215
2640456,1651136329.216,8218
2640457,1651136329.218,8220
2640458,1651136329.22,8222
2640459,1651136329.222,8224
2640460,1651136329.224,8226
2640461,1651136329.226,8228
2640462,1651136329.228,8229
2640463,1651136329.23,8230
2640464,1651136329.232,8231
2640465,1651136329.234,8232
2640466,1651136329.236,8234
2640467,1651136329.238,8237
2640468,1651136329.24,8240
2640469,1651136329.242,8241
2640470,1651136329.244,8241
2640471,1651136329.246,8240
2640472,1651136329.248,8238
2640473,1651136329.25,8237
2640474,1651136329.252,8237
2640475,1651136329.254,8239
2640476,1651136329.256,8242
2640477,1651136329.258,8244
2640478,1651136329.26,8244
2640479,1651136329.262,8243
2640480,1651136329.264,8241
2640481,1651136329.266,8238
2640482,1651136329.268,8234
2640483,1651136329.27,8231
2640484,1651136329.272,8228
2640485,1651136329.274,8225
2640486,1651136329.276,8223
2640487,1651136329.278,8221
2640488,1651136329.28,8218
2640489,1651136329.282,8215
2640490,1651136329.284,8211
2640491,1651136329.286,8208
2640492,1651136329.288,8205
2640493,1651136329.29,8202
2640494,1651136329.292,8200
2640495,1651136329.294,8198
2640496,1651136329.296,8196
2640497,1651136329.298,8194
2640498,1651136329.3,8191
2640499,1651136329.302,8189
2640500,1651136329.304,8187
2640501,1651136329.306,8186
2640502,1651136329.308,8186
2640503,1651136329.31,8185
2640504,1651136329.312,8184
2640505,1651136329.314,8183
2640506,1651136329.316,8182
2640507,1651136329.318,8180
2640508,1651136329.32,8179
2640509,1651136329.322,8178
2640510,1651136329.324,8177
2640511,1651136329.326,8177
2640512,1651136329.328,8176
2640513,1651136329.33,8176
2640514,1651136329.332,8176
2640515,1651136329.334,8175
2640516,1651136329.336,8174
2640517,1651136329.338,8174
2640518,1651136329.34,8173
2640519,1651136329.342,8173
2640520,1651136329.344,8173
2640521,1651136329.346,8172
2640522,1651136329.348,8172
2640523,1651136329.35,8172
2640524,1651136329.352,8172
2640525,1651136329.354,8171
2640526,1651136329.356,8171
2640527,1651136329.358,8172
2640528,1651136329.36,8172
2640529,1651136329.362,8172
2640530,1651136329.364,8173
2640531,1651136329.366,8173
2640532,1651136329.368,8173
2640533,1651136329.37,8173
2640534,1651136329.372,8174
2640535,1651136329.374,8174
2640536,1651136329.376,8174
2640537,1651136329.378,8175
2640538,1651136329.38,8176
2640539,1651136329.382,8177
2640540,1651136329.384,8177
2640541,1651136329.386,8177
2640542,1651136329.388,8177
2640543,1651136329.39,8177
2640544,1651136329.392,8180
2640545,1651136329.394,8186
2640546,1651136329.396,8199
2640547,1651136329.398,8225
2640548,1651136329.4,8265
2640549,1651136329.402,8316
2640550,1651136329.404,8377
2640551,1651136329.406,8442
2640552,1651136329.408,8510
2640553,1651136329.41,8563
2640554,1651136329.412,8579
2640555,1651136329.414,8534
2640556,1651136329.416,8424
2640557,1651136329.418,8275
2640558,1651136329.42,8128
2640559,1651136329.422,8011
2640560,1651136329.424,7939
2640561,1651136329.426,7907
2640562,1651136329.428,7911
2640563,1651136329.43,7939
2640564,1651136329.432,7980
2640565,1651136329.434,8022
2640566,1651136329.436,8060
2640567,1651136329.438,8091
2640568,1651136329.44,8115
2640569,1651136329.442,8133
2640570,1651136329.444,8143
2640571,1651136329.446,8148
2640572,1651136329.448,8150
2640573,1651136329.45,8151
2640574,1651136329.452,8152
2640575,1651136329.454,8152
2640576,1651136329.456,8153
2640577,1651136329.458,8153
2640578,1651136329.46,8154
2640579,1651136329.462,8155
2640580,1651136329.464,8156
2640581,1651136329.466,8156
2640582,1651136329.468,8156
2640583,1651136329.47,8157
2640584,1651136329.472,8157
2640585,1651136329.474,8157
2640586,1651136329.476,8157
2640587,1651136329.478,8157
2640588,1651136329.48,8158
2640589,1651136329.482,8158
2640590,1651136329.484,8158
2640591,1651136329.486,8157
2640592,1651136329.488,8157
2640593,1651136329.49,8157
2640594,1651136329.492,8157
2640595,1651136329.494,8157
2640596,1651136329.496,8157
2640597,1651136329.498,8157
2640598,1651136329.5,8157
2640599,1651136329.502,8156
2640600,1651136329.504,8156
2640601,1651136329.506,8156
2640602,1651136329.508,8156
2640603,1651136329.51,8156
2640604,1651136329.512,8157
2640605,1651136329.514,8158
2640606,1651136329.516,8159
2640607,1651136329.518,8160
2640608,1651136329.52,8162
2640609,1651136329.522,8163
2640610,1651136329.524,8165
2640611,1651136329.526,8167
2640612,1651136329.528,8169
2640613,1651136329.53,8171
2640614,1651136329.532,8173
2640615,1651136329.534,8176
2640616,1651136329.536,8179
2640617,1651136329.538,8182
2640618,1651136329.54,8185
2640619,1651136329.542,8188
2640620,1651136329.544,8191
2640621,1651136329.546,8194
2640622,1651136329.548,8196
2640623,1651136329.55,8198
2640624,1651136329.552,8199
2640625,1651136329.554,8201
2640626,1651136329.556,8202
2640627,1651136329.558,8204
2640628,1651136329.56,8205
2640629,1651136329.562,8207
2640630,1651136329.564,8208
2640631,1651136329.566,8209
2640632,1651136329.568,8211
2640633,1651136329.57,8213
2640634,1651136329.572,8216
2640635,1651136329.574,8218
2640636,1651136329.576,8221
2640637,1651136329.578,8223
2640638,1651136329.58,8226
2640639,1651136329.582,8228
2640640,1651136329.584,8229
2640641,1651136329.586,8231
2640642,1651136329.588,8232
2640643,1651136329.59,8233
2640644,1651136329.592,8233
2640645,1651136329.594,8235
2640646,1651136329.596,8237
2640647,1651136329.598,8240
2640648,1651136329.6,8242
2640649,1651136329.602,8244
2640650,1651136329.604,8243
2640651,1651136329.606,8242
2640652,1651136329.608,8239
2640653,1651136329.61,8237
2640654,1651136329.612,8238
2640655,1651136329.614,8241
2640656,1651136329.616,8243
2640657,1651136329.618,8245
2640658,1651136329.62,8245
2640659,1651136329.622,8243
2640660,1651136329.624,8240
2640661,1651136329.626,8237
2640662,1651136329.628,8234
2640663,1651136329.63,8232
2640664,1651136329.632,8229
2640665,1651136329.634,8227
2640666,1651136329.636,8225
2640667,1651136329.638,8222
2640668,1651136329.64,8219
2640669,1651136329.642,8216
2640670,1651136329.644,8213
2640671,1651136329.646,8209
2640672,1651136329.648,8206
2640673,1651136329.65,8203
2640674,1651136329.652,8201
2640675,1651136329.654,8199
2640676,1651136329.656,8197
2640677,1651136329.658,8195
2640678,1651136329.66,8193
2640679,1651136329.662,8191
2640680,1651136329.664,8190
2640681,1651136329.666,8188
2640682,1651136329.668,8187
2640683,1651136329.67,8186
2640684,1651136329.672,8185
2640685,1651136329.674,8184
2640686,1651136329.676,8183
2640687,1651136329.678,8183
2640688,1651136329.68,8182
2640689,1651136329.682,8181
2640690,1651136329.684,8180
2640691,1651136329.686,8180
2640692,1651136329.688,8180
2640693,1651136329.69,8179
2640694,1651136329.692,8179
2640695,1651136329.694,8178
2640696,1651136329.696,8178
2640697,1651136329.698,8177
2640698,1651136329.7,8177
2640699,1651136329.702,8176
2640700,1651136329.704,8175
2640701,1651136329.706,8175
2640702,1651136329.708,8175
2640703,1651136329.71,8175
2640704,1651136329.712,8175
2640705,1651136329.714,8175
2640706,1651136329.716,8175
2640707,1651136329.718,8175
2640708,1651136329.72,8175
2640709,1651136329.722,8175
2640710,1651136329.724,8176
2640711,1651136329.726,8176
2640712,1651136329.728,8177
2640713,1651136329.73,8177
2640714,1651136329.732,8177
2640715,1651136329.734,8178
2640716,1651136329.736,8178
2640717,1651136329.738,8179
2640718,1651136329.74,8179
2640719,1651136329.742,8180
2640720,1651136329.744,8180
2640721,1651136329.746,8181
2640722,1651136329.748,8182
2640723,1651136329.75,8183
2640724,1651136329.752,8186
2640725,1651136329.754,8193
2640726,1651136329.756,8209
2640727,1651136329.758,8237
2640728,1651136329.76,8278
2640729,1651136329.762,8328
2640730,1651136329.764,8384
2640731,1651136329.766,8446
2640732,1651136329.768,8510
2640733,1651136329.77,8560
2640734,1651136329.772,8568
2640735,1651136329.774,8507
2640736,1651136329.776,8384
2640737,1651136329.778,8233
2640738,1651136329.78,8094
2640739,1651136329.782,7991
2640740,1651136329.784,7930
2640741,1651136329.786,7908
2640742,1651136329.788,7915
2640743,1651136329.79,7944
2640744,1651136329.792,7985
2640745,1651136329.794,8028
2640746,1651136329.796,8067
2640747,1651136329.798,8100
2640748,1651136329.8,8125
2640749,1651136329.802,8141
2640750,1651136329.804,8150
2640751,1651136329.806,8154
2640752,1651136329.808,8156
2640753,1651136329.81,8156
2640754,1651136329.812,8156
2640755,1651136329.814,8157
2640756,1651136329.816,8158
2640757,1651136329.818,8158
2640758,1651136329.82,8158
2640759,1651136329.822,8159
2640760,1651136329.824,8159
2640761,1651136329.826,8160
2640762,1651136329.828,8160
2640763,1651136329.83,8160
2640764,1651136329.832,8159
2640765,1651136329.834,8159
2640766,1651136329.836,8160
2640767,1651136329.838,8160
2640768,1651136329.84,8160
2640769,1651136329.842,8159
2640770,1651136329.844,8159
2640771,1651136329.846,8159
2640772,1651136329.848,8159
2640773,1651136329.85,8159
2640774,1651136329.852,8158
2640775,1651136329.854,8158
2640776,1651136329.856,8158
2640777,1651136329.858,8158
2640778,1651136329.86,8157
2640779,1651136329.862,8157
2640780,1651136329.864,8156
2640781,1651136329.866,8157
2640782,1651136329.868,8157
2640783,1651136329.87,8157
2640784,1651136329.872,8158
2640785,1651136329.874,8159
2640786,1651136329.876,8160
2640787,1651136329.878,8161
2640788,1651136329.88,8162
2640789,1651136329.882,8163
2640790,1651136329.884,8165
2640791,1651136329.886,8166
2640792,1651136329.888,8169
2640793,1651136329.89,8171
2640794,1651136329.892,8174
2640795,1651136329.894,8176
2640796,1651136329.896,8179
2640797,1651136329.898,8182
2640798,1651136329.9,8185
2640799,1651136329.902,8188
2640800,1651136329.904,8190
2640801,1651136329.906,8193
2640802,1651136329.908,8196
2640803,1651136329.91,8198
2640804,1651136329.912,8200
2640805,1651136329.914,8202
2640806,1651136329.916,8204
2640807,1651136329.918,8205
2640808,1651136329.92,8207
2640809,1651136329.922,8208
2640810,1651136329.924,8209
2640811,1651136329.926,8210
2640812,1651136329.928,8212
2640813,1651136329.93,8215
2640814,1651136329.932,8218
2640815,1651136329.934,8220
2640816,1651136329.936,8222
2640817,1651136329.938,8224
2640818,1651136329.94,8226
2640819,1651136329.942,8228
2640820,1651136329.944,8231
2640821,1651136329.946,8233
2640822,1651136329.948,8234
2640823,1651136329.95,8235
2640824,1651136329.952,8236
2640825,1651136329.954,8237
2640826,1651136329.956,8239
2640827,1651136329.958,8242
2640828,1651136329.96,8245
2640829,1651136329.962,8246
2640830,1651136329.964,8247
2640831,1651136329.966,8245
2640832,1651136329.968,8243
2640833,1651136329.97,8241
2640834,1651136329.972,8242
2640835,1651136329.974,8244
2640836,1651136329.976,8246
2640837,1651136329.978,8248
2640838,1651136329.98,8248
2640839,1651136329.982,8246
2640840,1651136329.984,8243
2640841,1651136329.986,8240
2640842,1651136329.988,8237
2640843,1651136329.99,8234
2640844,1651136329.992,8231
2640845,1651136329.994,8228
2640846,1651136329.996,8226
2640847,1651136329.998,8224
2640848,1651136330.0,8221
2640849,1651136330.002,8218
2640850,1651136330.004,8214
2640851,1651136330.006,8210
2640852,1651136330.008,8207
2640853,1651136330.01,8205
2640854,1651136330.012,8203
2640855,1651136330.014,8201
2640856,1651136330.016,8198
2640857,1651136330.018,8196
2640858,1651136330.02,8193
2640859,1651136330.022,8191
2640860,1651136330.024,8190
2640861,1651136330.026,8189
2640862,1651136330.028,8188
2640863,1651136330.03,8188
2640864,1651136330.032,8187
2640865,1651136330.034,8186
2640866,1651136330.036,8185
2640867,1651136330.038,8184
2640868,1651136330.04,8183
2640869,1651136330.042,8182
2640870,1651136330.044,8182
2640871,1651136330.046,8181
2640872,1651136330.048,8180
2640873,1651136330.05,8180
2640874,1651136330.052,8180
2640875,1651136330.054,8179
2640876,1651136330.056,8179
2640877,1651136330.058,8178
2640878,1651136330.06,8178
2640879,1651136330.062,8177
2640880,1651136330.064,8177
2640881,1651136330.066,8176
2640882,1651136330.068,8176
2640883,1651136330.07,8176
2640884,1651136330.072,8176
2640885,1651136330.074,8176
2640886,1651136330.076,8176
2640887,1651136330.078,8176
2640888,1651136330.08,8176
2640889,1651136330.082,8176
2640890,1651136330.084,8175
2640891,1651136330.086,8175
2640892,1651136330.088,8175
2640893,1651136330.09,8176
2640894,1651136330.092,8176
2640895,1651136330.094,8177
2640896,1651136330.096,8177
2640897,1651136330.098,8178
2640898,1651136330.1,8179
2640899,1651136330.102,8179
2640900,1651136330.104,8179
2640901,1651136330.106,8179
2640902,1651136330.108,8179
2640903,1651136330.11,8180
2640904,1651136330.112,8182
2640905,1651136330.114,8189
2640906,1651136330.116,8203
2640907,1651136330.118,8229
2640908,1651136330.12,8270
2640909,1651136330.122,8322
2640910,1651136330.124,8382
2640911,1651136330.126,8448
2640912,1651136330.128,8512
2640913,1651136330.13,8562
2640914,1651136330.132,8573
2640915,1651136330.134,8519
2640916,1651136330.136,8400
2640917,1651136330.138,8250
2640918,1651136330.14,8108
2640919,1651136330.142,8000
2640920,1651136330.144,7934
2640921,1651136330.146,7908
2640922,1651136330.148,7914
2640923,1651136330.15,7943
2640924,1651136330.152,7983
2640925,1651136330.154,8024
2640926,1651136330.156,8061
2640927,1651136330.158,8093
2640928,1651136330.16,8119
2640929,1651136330.162,8137
2640930,1651136330.164,8147
2640931,1651136330.166,8152
2640932,1651136330.168,8153
2640933,1651136330.17,8154
2640934,1651136330.172,8154
2640935,1651136330.174,8154
2640936,1651136330.176,8155
2640937,1651136330.178,8156
2640938,1651136330.18,8157
2640939,1651136330.182,8157
2640940,1651136330.184,8158
2640941,1651136330.186,8158
2640942,1651136330.188,8158
2640943,1651136330.19,8158
2640944,1651136330.192,8158
2640945,1651136330.194,8159
2640946,1651136330.196,8159
2640947,1651136330.198,8159
2640948,1651136330.2,8159
2640949,1651136330.202,8159
2640950,1651136330.204,8158
2640951,1651136330.206,8158
2640952,1651136330.208,8158
2640953,1651136330.21,8158
2640954,1651136330.212,8158
2640955,1651136330.214,8157
2640956,1651136330.216,8157
2640957,1651136330.218,8157
2640958,1651136330.22,8157
2640959,1651136330.222,8156
2640960,1651136330.224,8156
2640961,1651136330.226,8156
2640962,1651136330.228,8157
2640963,1651136330.23,8157
2640964,1651136330.232,8157
2640965,1651136330.234,8158
2640966,1651136330.236,8159
2640967,1651136330.238,8160
2640968,1651136330.24,8161
2640969,1651136330.242,8162
2640970,1651136330.244,8164
2640971,1651136330.246,8166
2640972,1651136330.248,8168
2640973,1651136330.25,8170
2640974,1651136330.252,8173
2640975,1651136330.254,8176
2640976,1651136330.256,8179
2640977,1651136330.258,8182
2640978,1651136330.26,8185
2640979,1651136330.262,8188
2640980,1651136330.264,8190
2640981,1651136330.266,8193
2640982,1651136330.268,8195
2640983,1651136330.27,8196
2640984,1651136330.272,8198
2640985,1651136330.274,8200
2640986,1651136330.276,8203
2640987,1651136330.278,8204
2640988,1651136330.28,8206
2640989,1651136330.282,8208
2640990,1651136330.284,8209
2640991,1651136330.286,8210
2640992,1651136330.288,8211
2640993,1651136330.29,8213
2640994,1651136330.292,8216
2640995,1651136330.294,8219
2640996,1651136330.296,8221
2640997,1651136330.298,8224
2640998,1651136330.3,8226
2640999,1651136330.302,8228
2641000,1651136330.304,8230
2641001,1651136330.306,8232
2641002,1651136330.308,8233
2641003,1651136330.31,8234
2641004,1651136330.312,8235
2641005,1651136330.314,8236
2641006,1651136330.316,8238
2641007,1651136330.318,8241
2641008,1651136330.32,8244
2641009,1651136330.322,8245
2641010,1651136330.324,8245
2641011,1651136330.326,8243
2641012,1651136330.328,8241
2641013,1651136330.33,8239
2641014,1651136330.332,8240
2641015,1651136330.334,8242
2641016,1651136330.336,8244
2641017,1651136330.338,8246
2641018,1651136330.34,8246
2641019,1651136330.342,8244
2641020,1651136330.344,8242
2641021,1651136330.346,8239
2641022,1651136330.348,8236
2641023,1651136330.35,8233
2641024,1651136330.352,8231
2641025,1651136330.354,8228
2641026,1651136330.356,8226
2641027,1651136330.358,8223
2641028,1651136330.36,8220
2641029,1651136330.362,8217
2641030,1651136330.364,8213
2641031,1651136330.366,8209
2641032,1651136330.368,8205
2641033,1651136330.37,8203
2641034,1651136330.372,8201
2641035,1651136330.374,8200
2641036,1651136330.376,8198
2641037,1651136330.378,8195
2641038,1651136330.38,8192
2641039,1651136330.382,8190
2641040,1651136330.384,8188
2641041,1651136330.386,8186
2641042,1651136330.388,8185
2641043,1651136330.39,8184
2641044,1651136330.392,8184
2641045,1651136330.394,8184
2641046,1651136330.396,8183
2641047,1651136330.398,8182
2641048,1651136330.4,8181
2641049,1651136330.402,8180
2641050,1651136330.404,8179
2641051,1651136330.406,8178
2641052,1651136330.408,8177
2641053,1651136330.41,8177
2641054,1651136330.412,8176
2641055,1651136330.414,8176
2641056,1651136330.416,8175
2641057,1651136330.418,8175
2641058,1651136330.42,8175
2641059,1651136330.422,8174
2641060,1651136330.424,8173
2641061,1651136330.426,8173
2641062,1651136330.428,8173
2641063,1651136330.43,8173
2641064,1651136330.432,8173
2641065,1651136330.434,8173
2641066,1651136330.436,8173
2641067,1651136330.438,8172
2641068,1651136330.44,8172
2641069,1651136330.442,8172
2641070,1651136330.444,8172
2641071,1651136330.446,8172
2641072,1651136330.448,8173
2641073,1651136330.45,8173
2641074,1651136330.452,8174
2641075,1651136330.454,8174
2641076,1651136330.456,8175
2641077,1651136330.458,8175
2641078,1651136330.46,8175
2641079,1651136330.462,8176
2641080,1651136330.464,8176
2641081,1651136330.466,8176
2641082,1651136330.468,8177
2641083,1651136330.47,8177
2641084,1651136330.472,8180
2641085,1651136330.474,8186
2641086,1651136330.476,8201
2641087,1651136330.478,8227
2641088,1651136330.48,8264
2641089,1651136330.482,8313
2641090,1651136330.484,8369
2641091,1651136330.486,8433
2641092,1651136330.488,8497
2641093,1651136330.49,8550
2641094,1651136330.492,8562
2641095,1651136330.494,8506
2641096,1651136330.496,8387
2641097,1651136330.498,8237
2641098,1651136330.5,8099
2641099,1651136330.502,7996
2641100,1651136330.504,7934
2641101,1651136330.506,7908
2641102,1651136330.508,7911
2641103,1651136330.51,7938
2641104,1651136330.512,7977
2641105,1651136330.514,8019
2641106,1651136330.516,8059
2641107,1651136330.518,8093
2641108,1651136330.52,8119
2641109,1651136330.522,8136
2641110,1651136330.524,8145
2641111,1651136330.526,8150
2641112,1651136330.528,8151
2641113,1651136330.53,8152
2641114,1651136330.532,8153
2641115,1651136330.534,8153
2641116,1651136330.536,8154
2641117,1651136330.538,8155
2641118,1651136330.54,8155
2641119,1651136330.542,8156
2641120,1651136330.544,8157
2641121,1651136330.546,8157
2641122,1651136330.548,8157
2641123,1651136330.55,8157
2641124,1651136330.552,8157
2641125,1651136330.554,8157
2641126,1651136330.556,8157
2641127,1651136330.558,8157
2641128,1651136330.56,8157
2641129,1651136330.562,8157
2641130,1651136330.564,8157
2641131,1651136330.566,8157
2641132,1651136330.568,8157
2641133,1651136330.57,8157
2641134,1651136330.572,8157
2641135,1651136330.574,8156
2641136,1651136330.576,8156
2641137,1651136330.578,8156
2641138,1651136330.58,8155
2641139,1651136330.582,8155
2641140,1651136330.584,8155
2641141,1651136330.586,8155
2641142,1651136330.588,8154
2641143,1651136330.59,8154
2641144,1651136330.592,8154
2641145,1651136330.594,8155
2641146,1651136330.596,8156
2641147,1651136330.598,8156
2641148,1651136330.6,8157
2641149,1651136330.602,8159
2641150,1651136330.604,8160
2641151,1651136330.606,8162
2641152,1651136330.608,8165
2641153,1651136330.61,8168
2641154,1651136330.612,8171
2641155,1651136330.614,8173
2641156,1651136330.616,8176
2641157,1651136330.618,8179
2641158,1651136330.62,8182
2641159,1651136330.622,8185
2641160,1651136330.624,8188
2641161,1651136330.626,8191
2641162,1651136330.628,8193
2641163,1651136330.63,8196
2641164,1651136330.632,8198
2641165,1651136330.634,8199
2641166,1651136330.636,8201
2641167,1651136330.638,8202
2641168,1651136330.64,8203
2641169,1651136330.642,8204
2641170,1651136330.644,8206
2641171,1651136330.646,8207
2641172,1651136330.648,8209
2641173,1651136330.65,8211
2641174,1651136330.652,8213
2641175,1651136330.654,8216
2641176,1651136330.656,8218
2641177,1651136330.658,8221
2641178,1651136330.66,8223
2641179,1651136330.662,8225
2641180,1651136330.664,8227
2641181,1651136330.666,8228
2641182,1651136330.668,8229
2641183,1651136330.67,8230
2641184,1651136330.672,8230
2641185,1651136330.674,8231
2641186,1651136330.676,8233
2641187,1651136330.678,8236
2641188,1651136330.68,8239
2641189,1651136330.682,8240
2641190,1651136330.684,8240
2641191,1651136330.686,8238
2641192,1651136330.688,8236
2641193,1651136330.69,8234
2641194,1651136330.692,8235
2641195,1651136330.694,8237
2641196,1651136330.696,8239
2641197,1651136330.698,8241
2641198,1651136330.7,8241
2641199,1651136330.702,8240
2641200,1651136330.704,8238
2641201,1651136330.706,8235
2641202,1651136330.708,8232
2641203,1651136330.71,8230
2641204,1651136330.712,8227
2641205,1651136330.714,8224
2641206,1651136330.716,8222
2641207,1651136330.718,8220
2641208,1651136330.72,8217
2641209,1651136330.722,8214
2641210,1651136330.724,8210
2641211,1651136330.726,8206
2641212,1651136330.728,8202
2641213,1651136330.73,8199
2641214,1651136330.732,8197
2641215,1651136330.734,8195
2641216,1651136330.736,8192
2641217,1651136330.738,8190
2641218,1651136330.74,8188
2641219,1651136330.742,8186
2641220,1651136330.744,8185
2641221,1651136330.746,8184
2641222,1651136330.748,8183
2641223,1651136330.75,8182
2641224,1651136330.752,8181
2641225,1651136330.754,8181
2641226,1651136330.756,8180
2641227,1651136330.758,8179
2641228,1651136330.76,8179
2641229,1651136330.762,8178
2641230,1651136330.764,8177
2641231,1651136330.766,8176
2641232,1651136330.768,8176
2641233,1651136330.77,8175
2641234,1651136330.772,8174
2641235,1651136330.774,8174
2641236,1651136330.776,8173
2641237,1651136330.778,8172
2641238,1651136330.78,8172
2641239,1651136330.782,8172
2641240,1651136330.784,8172
2641241,1651136330.786,8171
2641242,1651136330.788,8171
2641243,1651136330.79,8171
2641244,1651136330.792,8171
2641245,1651136330.794,8171
2641246,1651136330.796,8171
2641247,1651136330.798,8171
2641248,1651136330.8,8171
2641249,1651136330.802,8170
2641250,1651136330.804,8170
2641251,1651136330.806,8171
2641252,1651136330.808,8171
2641253,1651136330.81,8172
2641254,1651136330.812,8172
2641255,1651136330.814,8172
2641256,1651136330.816,8173
2641257,1651136330.818,8173
2641258,1651136330.82,8174
2641259,1651136330.822,8174
2641260,1651136330.824,8175
2641261,1651136330.826,8175
2641262,1651136330.828,8175
2641263,1651136330.83,8176
2641264,1651136330.832,8177
2641265,1651136330.834,8182
2641266,1651136330.836,8195
2641267,1651136330.838,8218
2641268,1651136330.84,8256
2641269,1651136330.842,8307
2641270,1651136330.844,8367
2641271,1651136330.846,8432
2641272,1651136330.848,8498
2641273,1651136330.85,8554
2641274,1651136330.852,8578
2641275,1651136330.854,8541
2641276,1651136330.856,8434
2641277,1651136330.858,8285
2641278,1651136330.86,8134
2641279,1651136330.862,8014
2641280,1651136330.864,7937
2641281,1651136330.866,7903
2641282,1651136330.868,7904
2641283,1651136330.87,7930
2641284,1651136330.872,7968
2641285,1651136330.874,8008
2641286,1651136330.876,8047
2641287,1651136330.878,8080
2641288,1651136330.88,8108
2641289,1651136330.882,8127
2641290,1651136330.884,8139
2641291,1651136330.886,8144
2641292,1651136330.888,8147
2641293,1651136330.89,8147
2641294,1651136330.892,8148
2641295,1651136330.894,8149
2641296,1651136330.896,8149
2641297,1651136330.898,8150
2641298,1651136330.9,8151
2641299,1651136330.902,8151
2641300,1651136330.904,8152
2641301,1651136330.906,8152
2641302,1651136330.908,8152
2641303,1651136330.91,8152
2641304,1651136330.912,8153
2641305,1651136330.914,8153
2641306,1651136330.916,8152
2641307,1651136330.918,8153
2641308,1651136330.92,8153
2641309,1651136330.922,8153
2641310,1651136330.924,8153
2641311,1651136330.926,8153
2641312,1651136330.928,8152
2641313,1651136330.93,8152
2641314,1651136330.932,8152
2641315,1651136330.934,8152
2641316,1651136330.936,8152
2641317,1651136330.938,8152
2641318,1651136330.94,8152
2641319,1651136330.942,8152
2641320,1651136330.944,8152
2641321,1651136330.946,8152
2641322,1651136330.948,8152
2641323,1651136330.95,8152
2641324,1651136330.952,8153
2641325,1651136330.954,8154
2641326,1651136330.956,8154
2641327,1651136330.958,8155
2641328,1651136330.96,8156
2641329,1651136330.962,8157
2641330,1651136330.964,8158
2641331,1651136330.966,8160
2641332,1651136330.968,8162
2641333,1651136330.97,8165
2641334,1651136330.972,8168
2641335,1651136330.974,8171
2641336,1651136330.976,8174
2641337,1651136330.978,8177
2641338,1651136330.98,8180
2641339,1651136330.982,8183
2641340,1651136330.984,8186
2641341,1651136330.986,8189
2641342,1651136330.988,8191
2641343,1651136330.99,8193
2641344,1651136330.992,8195
2641345,1651136330.994,8197
2641346,1651136330.996,8199
2641347,1651136330.998,8201
2641348,1651136331.0,8202
2641349,1651136331.002,8203
2641350,1651136331.004,8204
2641351,1651136331.006,8205
2641352,1651136331.008,8207
2641353,1651136331.01,8209
2641354,1651136331.012,8212
2641355,1651136331.014,8215
2641356,1651136331.016,8218
2641357,1651136331.018,8220
2641358,1651136331.02,8222
2641359,1651136331.022,8224
2641360,1651136331.024,8226
2641361,1651136331.026,8228
2641362,1651136331.028,8229
2641363,1651136331.03,8230
2641364,1651136331.032,8231
2641365,1651136331.034,8232
2641366,1651136331.036,8234
2641367,1651136331.038,8237
2641368,1651136331.04,8240
2641369,1651136331.042,8242
2641370,1651136331.044,8242
2641371,1651136331.046,8241
2641372,1651136331.048,8239
2641373,1651136331.05,8236
2641374,1651136331.052,8236
2641375,1651136331.054,8238
2641376,1651136331.056,8240
2641377,1651136331.058,8242
2641378,1651136331.06,8243
2641379,1651136331.062,8243
2641380,1651136331.064,8241
2641381,1651136331.066,8238
2641382,1651136331.068,8235
2641383,1651136331.07,8232
2641384,1651136331.072,8229
2641385,1651136331.074,8226
2641386,1651136331.076,8224
2641387,1651136331.078,8222
2641388,1651136331.08,8220
2641389,1651136331.082,8216
2641390,1651136331.084,8212
2641391,1651136331.086,8208
2641392,1651136331.088,8205
2641393,1651136331.09,8203
2641394,1651136331.092,8201
2641395,1651136331.094,8199
2641396,1651136331.096,8197
2641397,1651136331.098,8195
2641398,1651136331.1,8192
2641399,1651136331.102,8189
2641400,1651136331.104,8187
2641401,1651136331.106,8186
2641402,1651136331.108,8185
2641403,1651136331.11,8185
2641404,1651136331.112,8184
2641405,1651136331.114,8183
2641406,1651136331.116,8182
2641407,1651136331.118,8181
2641408,1651136331.12,8180
2641409,1651136331.122,8179
2641410,1651136331.124,8178
2641411,1651136331.126,8178
2641412,1651136331.128,8177
2641413,1651136331.13,8177
2641414,1651136331.132,8176
2641415,1651136331.134,8176
2641416,1651136331.136,8176
2641417,1651136331.138,8175
2641418,1651136331.14,8175
2641419,1651136331.142,8174
2641420,1651136331.144,8174
2641421,1651136331.146,8173
2641422,1651136331.148,8173
2641423,1651136331.15,8173
2641424,1651136331.152,8172
2641425,1651136331.154,8172
2641426,1651136331.156,8172
2641427,1651136331.158,8172
2641428,1651136331.16,8173
2641429,1651136331.162,8173
2641430,1651136331.164,8173
2641431,1651136331.166,8174
2641432,1651136331.168,8174
2641433,1651136331.17,8174
2641434,1651136331.172,8175
2641435,1651136331.174,8175
2641436,1651136331.176,8175
2641437,1651136331.178,8176
2641438,1651136331.18,8176
2641439,1651136331.182,8177
2641440,1651136331.184,8177
2641441,1651136331.186,8177
2641442,1651136331.188,8178
2641443,1651136331.19,8178
2641444,1651136331.192,8180
2641445,1651136331.194,8186
2641446,1651136331.196,8198
2641447,1651136331.198,8219
2641448,1651136331.2,8253
2641449,1651136331.202,8301
2641450,1651136331.204,8359
2641451,1651136331.206,8423
2641452,1651136331.208,8491
2641453,1651136331.21,8551
2641454,1651136331.212,8577
2641455,1651136331.214,8539
2641456,1651136331.216,8431
2641457,1651136331.218,8282
2641458,1651136331.22,8136
2641459,1651136331.222,8021
2641460,1651136331.224,7946
2641461,1651136331.226,7910
2641462,1651136331.228,7906
2641463,1651136331.23,7929
2641464,1651136331.232,7967
2641465,1651136331.234,8009
2641466,1651136331.236,8049
2641467,1651136331.238,8084
2641468,1651136331.24,8111
2641469,1651136331.242,8130
2641470,1651136331.244,8140
2641471,1651136331.246,8146
2641472,1651136331.248,8148
2641473,1651136331.25,8149
2641474,1651136331.252,8150
2641475,1651136331.254,8150
2641476,1651136331.256,8151
2641477,1651136331.258,8152
2641478,1651136331.26,8153
2641479,1651136331.262,8154
2641480,1651136331.264,8155
2641481,1651136331.266,8155
2641482,1651136331.268,8156
2641483,1651136331.27,8156
2641484,1651136331.272,8157
2641485,1651136331.274,8157
2641486,1651136331.276,8157
2641487,1651136331.278,8157
2641488,1651136331.28,8157
2641489,1651136331.282,8157
2641490,1651136331.284,8157
2641491,1651136331.286,8157
2641492,1651136331.288,8157
2641493,1651136331.29,8157
2641494,1651136331.292,8157
2641495,1651136331.294,8157
2641496,1651136331.296,8157
2641497,1651136331.298,8157
2641498,1651136331.3,8157
2641499,1651136331.302,8157
2641500,1651136331.304,8157
2641501,1651136331.306,8157
2641502,1651136331.308,8157
2641503,1651136331.31,8157
2641504,1651136331.312,8157
2641505,1651136331.314,8158
2641506,1651136331.316,8159
2641507,1651136331.318,8160
2641508,1651136331.32,8161
2641509,1651136331.322,8163
2641510,1651136331.324,8165
2641511,1651136331.326,8167
2641512,1651136331.328,8169
2641513,1651136331.33,8171
2641514,1651136331.332,8174
2641515,1651136331.334,8176
2641516,1651136331.336,8179
2641517,1651136331.338,8182
2641518,1651136331.34,8185
2641519,1651136331.342,8188
2641520,1651136331.344,8191
2641521,1651136331.346,8193
2641522,1651136331.348,8196
2641523,1651136331.35,8198
2641524,1651136331.352,8200
2641525,1651136331.354,8202
2641526,1651136331.356,8204
2641527,1651136331.358,8205
2641528,1651136331.36,8207
2641529,1651136331.362,8208
2641530,1651136331.364,8209
2641531,1651136331.366,8210
2641532,1651136331.368,8211
2641533,1651136331.37,8213
2641534,1651136331.372,8216
2641535,1651136331.374,8218
2641536,1651136331.376,8220
2641537,1651136331.378,8223
2641538,1651136331.38,8225
2641539,1651136331.382,8228
2641540,1651136331.384,8230
2641541,1651136331.386,8231
2641542,1651136331.388,8233
2641543,1651136331.39,8234
2641544,1651136331.392,8234
2641545,1651136331.394,8235
2641546,1651136331.396,8237
2641547,1651136331.398,8240
2641548,1651136331.4,8243
2641549,1651136331.402,8245
2641550,1651136331.404,8245
2641551,1651136331.406,8244
2641552,1651136331.408,8242
2641553,1651136331.41,8240
2641554,1651136331.412,8239
2641555,1651136331.414,8241
2641556,1651136331.416,8243
2641557,1651136331.418,8244
2641558,1651136331.42,8245
2641559,1651136331.422,8245
2641560,1651136331.424,8244
2641561,1651136331.426,8242
2641562,1651136331.428,8239
2641563,1651136331.43,8236
2641564,1651136331.432,8233
2641565,1651136331.434,8230
2641566,1651136331.436,8228
2641567,1651136331.438,8226
2641568,1651136331.44,8223
2641569,1651136331.442,8220
2641570,1651136331.444,8217
2641571,1651136331.446,8213
2641572,1651136331.448,8209
2641573,1651136331.45,8206
2641574,1651136331.452,8204
2641575,1651136331.454,8202
2641576,1651136331.456,8199
2641577,1651136331.458,8197
2641578,1651136331.46,8194
2641579,1651136331.462,8192
2641580,1651136331.464,8190
2641581,1651136331.466,8189
2641582,1651136331.468,8188
2641583,1651136331.47,8187
2641584,1651136331.472,8185
2641585,1651136331.474,8184
2641586,1651136331.476,8183
2641587,1651136331.478,8183
2641588,1651136331.48,8182
2641589,1651136331.482,8182
2641590,1651136331.484,8181
2641591,1651136331.486,8180
2641592,1651136331.488,8179
2641593,1651136331.49,8179
2641594,1651136331.492,8178
2641595,1651136331.494,8178
2641596,1651136331.496,8178
2641597,1651136331.498,8177
2641598,1651136331.5,8177
2641599,1651136331.502,8176
2641600,1651136331.504,8176
2641601,1651136331.506,8176
2641602,1651136331.508,8176
2641603,1651136331.51,8175
2641604,1651136331.512,8175
2641605,1651136331.514,8175
2641606,1651136331.516,8175
2641607,1651136331.518,8175
2641608,1651136331.52,8175
2641609,1651136331.522,8175
2641610,1651136331.524,8175
2641611,1651136331.526,8176
2641612,1651136331.528,8176
2641613,1651136331.53,8176
2641614,1651136331.532,8176
2641615,1651136331.534,8177
2641616,1651136331.536,8177
2641617,1651136331.538,8177
2641618,1651136331.54,8178
2641619,1651136331.542,8179
2641620,1651136331.544,8180
2641621,1651136331.546,8181
2641622,1651136331.548,8181
2641623,1651136331.55,8181
2641624,1651136331.552,8183
2641625,1651136331.554,8186
2641626,1651136331.556,8195
2641627,1651136331.558,8214
2641628,1651136331.56,8246
2641629,1651136331.562,8293
2641630,1651136331.564,8350
2641631,1651136331.566,8411
2641632,1651136331.568,8473
2641633,1651136331.57,8531
2641634,1651136331.572,8570
2641635,1651136331.574,8559
2641636,1651136331.576,8477
2641637,1651136331.578,8340
2641638,1651136331.58,8187
2641639,1651136331.582,8055
2641640,1651136331.584,7965
2641641,1651136331.586,7917
2641642,1651136331.588,7905
2641643,1651136331.59,7920
2641644,1651136331.592,7953
2641645,1651136331.594,7994
2641646,1651136331.596,8036
2641647,1651136331.598,8074
2641648,1651136331.6,8106
2641649,1651136331.602,8129
2641650,1651136331.604,8144
2641651,1651136331.606,8151
2641652,1651136331.608,8154
2641653,1651136331.61,8155
2641654,1651136331.612,8155
2641655,1651136331.614,8155
2641656,1651136331.616,8156
2641657,1651136331.618,8157
2641658,1651136331.62,8157
2641659,1651136331.622,8158
2641660,1651136331.624,8158
2641661,1651136331.626,8159
2641662,1651136331.628,8159
2641663,1651136331.63,8159
2641664,1651136331.632,8160
2641665,1651136331.634,8160
2641666,1651136331.636,8160
2641667,1651136331.638,8159
2641668,1651136331.64,8159
2641669,1651136331.642,8159
2641670,1651136331.644,8159
2641671,1651136331.646,8159
2641672,1651136331.648,8159
2641673,1651136331.65,8158
2641674,1651136331.652,8158
2641675,1651136331.654,8158
2641676,1651136331.656,8158
2641677,1651136331.658,8158
2641678,1651136331.66,8158
2641679,1651136331.662,8158
2641680,1651136331.664,8158
2641681,1651136331.666,8158
2641682,1651136331.668,8158
2641683,1651136331.67,8158
2641684,1651136331.672,8158
2641685,1651136331.674,8158
2641686,1651136331.676,8159
2641687,1651136331.678,8160
2641688,1651136331.68,8161
2641689,1651136331.682,8162
2641690,1651136331.684,8164
2641691,1651136331.686,8166
2641692,1651136331.688,8169
2641693,1651136331.69,8171
2641694,1651136331.692,8174
2641695,1651136331.694,8176
2641696,1651136331.696,8179
2641697,1651136331.698,8181
2641698,1651136331.7,8184
2641699,1651136331.702,8187
2641700,1651136331.704,8189
2641701,1651136331.706,8193
2641702,1651136331.708,8196
2641703,1651136331.71,8199
2641704,1651136331.712,8201
2641705,1651136331.714,8203
2641706,1651136331.716,8205
2641707,1651136331.718,8206
2641708,1651136331.72,8208
2641709,1651136331.722,8209
2641710,1651136331.724,8210
2641711,1651136331.726,8212
2641712,1651136331.728,8213
2641713,1651136331.73,8215
2641714,1651136331.732,8217
2641715,1651136331.734,8220
2641716,1651136331.736,8222
2641717,1651136331.738,8225
2641718,1651136331.74,8227
2641719,1651136331.742,8229
2641720,1651136331.744,8231
2641721,1651136331.746,8232
2641722,1651136331.748,8234
2641723,1651136331.75,8235
2641724,1651136331.752,8235
2641725,1651136331.754,8236
2641726,1651136331.756,8237
2641727,1651136331.758,8240
2641728,1651136331.76,8243
2641729,1651136331.762,8246
2641730,1651136331.764,8247
2641731,1651136331.766,8246
2641732,1651136331.768,8244
2641733,1651136331.77,8241
2641734,1651136331.772,8240
2641735,1651136331.774,8241
2641736,1651136331.776,8243
2641737,1651136331.778,8245
2641738,1651136331.78,8247
2641739,1651136331.782,8246
2641740,1651136331.784,8245
2641741,1651136331.786,8242
2641742,1651136331.788,8239
2641743,1651136331.79,8236
2641744,1651136331.792,8234
2641745,1651136331.794,8231
2641746,1651136331.796,8229
2641747,1651136331.798,8227
2641748,1651136331.8,8225
2641749,1651136331.802,8222
2641750,1651136331.804,8218
2641751,1651136331.806,8214
2641752,1651136331.808,8210
2641753,1651136331.81,8206
2641754,1651136331.812,8204
2641755,1651136331.814,8202
2641756,1651136331.816,8200
2641757,1651136331.818,8197
2641758,1651136331.82,8195
2641759,1651136331.822,8192
2641760,1651136331.824,8190
2641761,1651136331.826,8189
2641762,1651136331.828,8188
2641763,1651136331.83,8188
2641764,1651136331.832,8187
2641765,1651136331.834,8186
2641766,1651136331.836,8186
2641767,1651136331.838,8185
2641768,1651136331.84,8184
2641769,1651136331.842,8183
2641770,1651136331.844,8183
2641771,1651136331.846,8182
2641772,1651136331.848,8181
2641773,1651136331.85,8181
2641774,1651136331.852,8180
2641775,1651136331.854,8180
2641776,1651136331.856,8179
2641777,1651136331.858,8179
2641778,1651136331.86,8179
2641779,1651136331.862,8178
2641780,1651136331.864,8178
2641781,1651136331.866,8177
2641782,1651136331.868,8177
2641783,1651136331.87,8176
2641784,1651136331.872,8176
2641785,1651136331.874,8175
2641786,1651136331.876,8176
2641787,1651136331.878,8176
2641788,1651136331.88,8177
2641789,1651136331.882,8177
2641790,1651136331.884,8177
2641791,1651136331.886,8177
2641792,1651136331.888,8177
2641793,1651136331.89,8177
2641794,1651136331.892,8177
2641795,1651136331.894,8177
2641796,1651136331.896,8178
2641797,1651136331.898,8179
2641798,1651136331.9,8180
2641799,1651136331.902,8180
2641800,1651136331.904,8180
2641801,1651136331.906,8180
2641802,1651136331.908,8181
2641803,1651136331.91,8181
2641804,1651136331.912,8181
2641805,1651136331.914,8183
2641806,1651136331.916,8188
2641807,1651136331.918,8201
2641808,1651136331.92,8224
2641809,1651136331.922,8262
2641810,1651136331.924,8313
2641811,1651136331.926,8373
2641812,1651136331.928,8438
2641813,1651136331.93,8504
2641814,1651136331.932,8555
2641815,1651136331.934,8564
2641816,1651136331.936,8509
2641817,1651136331.938,8395
2641818,1651136331.94,8253
2641819,1651136331.942,8115
2641820,1651136331.944,8008
2641821,1651136331.946,7940
2641822,1651136331.948,7910
2641823,1651136331.95,7911
2641824,1651136331.952,7938
2641825,1651136331.954,7977
2641826,1651136331.956,8020
2641827,1651136331.958,8058
2641828,1651136331.96,8091
2641829,1651136331.962,8116
2641830,1651136331.964,8134
2641831,1651136331.966,8145
2641832,1651136331.968,8150
2641833,1651136331.97,8152
2641834,1651136331.972,8153
2641835,1651136331.974,8154
2641836,1651136331.976,8154
2641837,1651136331.978,8155
2641838,1651136331.98,8156
2641839,1651136331.982,8156
2641840,1651136331.984,8157
2641841,1651136331.986,8157
2641842,1651136331.988,8158
2641843,1651136331.99,8158
2641844,1651136331.992,8158
2641845,1651136331.994,8158
2641846,1651136331.996,8158
2641847,1651136331.998,8158
2641848,1651136332.0,8158
2641849,1651136332.002,8158
2641850,1651136332.004,8158
2641851,1651136332.006,8158
2641852,1651136332.008,8158
2641853,1651136332.01,8158
2641854,1651136332.012,8157
2641855,1651136332.014,8157
2641856,1651136332.016,8157
2641857,1651136332.018,8157
2641858,1651136332.02,8157
2641859,1651136332.022,8157
2641860,1651136332.024,8156
2641861,1651136332.026,8157
2641862,1651136332.028,8157
2641863,1651136332.03,8157
2641864,1651136332.032,8157
2641865,1651136332.034,8157
2641866,1651136332.036,8157
2641867,1651136332.038,8158
2641868,1651136332.04,8159
2641869,1651136332.042,8161
2641870,1651136332.044,8162
2641871,1651136332.046,8164
2641872,1651136332.048,8166
2641873,1651136332.05,8168
2641874,1651136332.052,8170
2641875,1651136332.054,8172
2641876,1651136332.056,8175
2641877,1651136332.058,8178
2641878,1651136332.06,8182
2641879,1651136332.062,8185
2641880,1651136332.064,8189
2641881,1651136332.066,8191
2641882,1651136332.068,8194
2641883,1651136332.07,8197
2641884,1651136332.072,8199
2641885,1651136332.074,8201
2641886,1651136332.076,8203
2641887,1651136332.078,8205
2641888,1651136332.08,8206
2641889,1651136332.082,8208
2641890,1651136332.084,8209
2641891,1651136332.086,8210
2641892,1651136332.088,8211
2641893,1651136332.09,8212
2641894,1651136332.092,8214
2641895,1651136332.094,8217
2641896,1651136332.096,8220
2641897,1651136332.098,8222
2641898,1651136332.1,8224
2641899,1651136332.102,8226
2641900,1651136332.104,8228
2641901,1651136332.106,8230
2641902,1651136332.108,8232
2641903,1651136332.11,8234
2641904,1651136332.112,8235
2641905,1651136332.114,8235
2641906,1651136332.116,8236
2641907,1651136332.118,8238
2641908,1651136332.12,8241
2641909,1651136332.122,8244
2641910,1651136332.124,8246
2641911,1651136332.126,8246
2641912,1651136332.128,8245
2641913,1651136332.13,8242
2641914,1651136332.132,8239
2641915,1651136332.134,8238
2641916,1651136332.136,8239
2641917,1651136332.138,8242
2641918,1651136332.14,8244
2641919,1651136332.142,8245
2641920,1651136332.144,8245
2641921,1651136332.146,8243
2641922,1651136332.148,8240
2641923,1651136332.15,8237
2641924,1651136332.152,8234
2641925,1651136332.154,8232
2641926,1651136332.156,8229
2641927,1651136332.158,8227
2641928,1651136332.16,8225
2641929,1651136332.162,8222
2641930,1651136332.164,8218
2641931,1651136332.166,8214
2641932,1651136332.168,8210
2641933,1651136332.17,8206
2641934,1651136332.172,8203
2641935,1651136332.174,8201
2641936,1651136332.176,8199
2641937,1651136332.178,8197
2641938,1651136332.18,8195
2641939,1651136332.182,8192
2641940,1651136332.184,8190
2641941,1651136332.186,8188
2641942,1651136332.188,8187
2641943,1651136332.19,8186
2641944,1651136332.192,8185
2641945,1651136332.194,8184
2641946,1651136332.196,8183
2641947,1651136332.198,8182
2641948,1651136332.2,8182
2641949,1651136332.202,8181
2641950,1651136332.204,8181
2641951,1651136332.206,8180
2641952,1651136332.208,8180
2641953,1651136332.21,8179
2641954,1651136332.212,8178
2641955,1651136332.214,8178
2641956,1651136332.216,8178
2641957,1651136332.218,8178
2641958,1651136332.22,8177
2641959,1651136332.222,8177
2641960,1651136332.224,8176
2641961,1651136332.226,8176
2641962,1651136332.228,8175
2641963,1651136332.23,8174
2641964,1651136332.232,8174
2641965,1651136332.234,8174
2641966,1651136332.236,8174
2641967,1651136332.238,8174
2641968,1651136332.24,8174
2641969,1651136332.242,8174
2641970,1651136332.244,8175
2641971,1651136332.246,8175
2641972,1651136332.248,8175
2641973,1651136332.25,8176
2641974,1651136332.252,8176
2641975,1651136332.254,8176
2641976,1651136332.256,8176
2641977,1651136332.258,8176
2641978,1651136332.26,8176
2641979,1651136332.262,8177
2641980,1651136332.264,8178
2641981,1651136332.266,8178
2641982,1651136332.268,8179
2641983,1651136332.27,8179
2641984,1651136332.272,8180
2641985,1651136332.274,8181
2641986,1651136332.276,8184
2641987,1651136332.278,8192
2641988,1651136332.28,8209
2641989,1651136332.282,8238
2641990,1651136332.284,8278
2641991,1651136332.286,8328
2641992,1651136332.288,8386
2641993,1651136332.29,8450
2641994,1651136332.292,8514
2641995,1651136332.294,8559
2641996,1651136332.296,8555
2641997,1651136332.298,8480
2641998,1651136332.3,8347
2641999,1651136332.302,8195
2642000,1651136332.304,8064
2642001,1651136332.306,7972
2642002,1651136332.308,7922
2642003,1651136332.31,7906
2642004,1651136332.312,7917
2642005,1651136332.314,7948
2642006,1651136332.316,7988
2642007,1651136332.318,8030
2642008,1651136332.32,8068
2642009,1651136332.322,8100
2642010,1651136332.324,8124
2642011,1651136332.326,8139
2642012,1651136332.328,8147
2642013,1651136332.33,8150
2642014,1651136332.332,8151
2642015,1651136332.334,8151
2642016,1651136332.336,8152
2642017,1651136332.338,8152
2642018,1651136332.34,8153
2642019,1651136332.342,8154
2642020,1651136332.344,8154
2642021,1651136332.346,8155
2642022,1651136332.348,8156
2642023,1651136332.35,8156
2642024,1651136332.352,8156
2642025,1651136332.354,8156
2642026,1651136332.356,8156
2642027,1651136332.358,8156
2642028,1651136332.36,8155
2642029,1651136332.362,8155
2642030,1651136332.364,8156
2642031,1651136332.366,8155
2642032,1651136332.368,8155
2642033,1651136332.37,8155
2642034,1651136332.372,8156
2642035,1651136332.374,8156
2642036,1651136332.376,8155
2642037,1651136332.378,8155
2642038,1651136332.38,8155
2642039,1651136332.382,8155
2642040,1651136332.384,8154
2642041,1651136332.386,8154
2642042,1651136332.388,8154
2642043,1651136332.39,8155
2642044,1651136332.392,8155
2642045,1651136332.394,8155
2642046,1651136332.396,8156
2642047,1651136332.398,8156
2642048,1651136332.4,8157
2642049,1651136332.402,8157
2642050,1651136332.404,8159
2642051,1651136332.406,8161
2642052,1651136332.408,8163
2642053,1651136332.41,8165
2642054,1651136332.412,8168
2642055,1651136332.414,8170
2642056,1651136332.416,8172
2642057,1651136332.418,8175
2642058,1651136332.42,8178
2642059,1651136332.422,8182
2642060,1651136332.424,8185
2642061,1651136332.426,8188
2642062,1651136332.428,8190
2642063,1651136332.43,8193
2642064,1651136332.432,8196
2642065,1651136332.434,8198
2642066,1651136332.436,8200
2642067,1651136332.438,8202
2642068,1651136332.44,8204
2642069,1651136332.442,8206
2642070,1651136332.444,8207
2642071,1651136332.446,8208
2642072,1651136332.448,8209
2642073,1651136332.45,8210
2642074,1651136332.452,8211
2642075,1651136332.454,8213
2642076,1651136332.456,8216
2642077,1651136332.458,8219
2642078,1651136332.46,8222
2642079,1651136332.462,8224
2642080,1651136332.464,8226
2642081,1651136332.466,8228
2642082,1651136332.468,8230
2642083,1651136332.47,8232
2642084,1651136332.472,8234
2642085,1651136332.474,8234
2642086,1651136332.476,8235
2642087,1651136332.478,8236
2642088,1651136332.48,8238
2642089,1651136332.482,8241
2642090,1651136332.484,8244
2642091,1651136332.486,8245
2642092,1651136332.488,8245
2642093,1651136332.49,8244
2642094,1651136332.492,8241
2642095,1651136332.494,8239
2642096,1651136332.496,8239
2642097,1651136332.498,8241
2642098,1651136332.5,8243
2642099,1651136332.502,8245
2642100,1651136332.504,8245
2642101,1651136332.506,8244
2642102,1651136332.508,8242
2642103,1651136332.51,8240
2642104,1651136332.512,8237
2642105,1651136332.514,8234
2642106,1651136332.516,8231
2642107,1651136332.518,8229
2642108,1651136332.52,8226
2642109,1651136332.522,8224
2642110,1651136332.524,8222
2642111,1651136332.526,8219
2642112,1651136332.528,8215
2642113,1651136332.53,8211
2642114,1651136332.532,8207
2642115,1651136332.534,8204
2642116,1651136332.536,8201
2642117,1651136332.538,8199
2642118,1651136332.54,8196
2642119,1651136332.542,8193
2642120,1651136332.544,8191
2642121,1651136332.546,8188
2642122,1651136332.548,8187
2642123,1651136332.55,8186
2642124,1651136332.552,8185
2642125,1651136332.554,8184
2642126,1651136332.556,8183
2642127,1651136332.558,8182
2642128,1651136332.56,8181
2642129,1651136332.562,8180
2642130,1651136332.564,8179
2642131,1651136332.566,8179
2642132,1651136332.568,8179
2642133,1651136332.57,8179
2642134,1651136332.572,8178
2642135,1651136332.574,8177
2642136,1651136332.576,8176
2642137,1651136332.578,8176
2642138,1651136332.58,8175
2642139,1651136332.582,8174
2642140,1651136332.584,8174
2642141,1651136332.586,8173
2642142,1651136332.588,8173
2642143,1651136332.59,8173
2642144,1651136332.592,8173
2642145,1651136332.594,8172
2642146,1651136332.596,8172
2642147,1651136332.598,8172
2642148,1651136332.6,8171
2642149,1651136332.602,8171
2642150,1651136332.604,8172
2642151,1651136332.606,8172
2642152,1651136332.608,8172
2642153,1651136332.61,8172
2642154,1651136332.612,8172
2642155,1651136332.614,8172
2642156,1651136332.616,8173
2642157,1651136332.618,8173
2642158,1651136332.62,8174
2642159,1651136332.622,8174
2642160,1651136332.624,8175
2642161,1651136332.626,8176
2642162,1651136332.628,8176
2642163,1651136332.63,8176
2642164,1651136332.632,8177
2642165,1651136332.634,8177
2642166,1651136332.636,8178
2642167,1651136332.638,8182
2642168,1651136332.64,8191
2642169,1651136332.642,8211
2642170,1651136332.644,8243
2642171,1651136332.646,8291
2642172,1651136332.648,8348
2642173,1651136332.65,8412
2642174,1651136332.652,8478
2642175,1651136332.654,8538
2642176,1651136332.656,8574
2642177,1651136332.658,8559
2642178,1651136332.66,8473
2642179,1651136332.662,8332
2642180,1651136332.664,8176
2642181,1651136332.666,8044
2642182,1651136332.668,7954
2642183,1651136332.67,7909
2642184,1651136332.672,7900
2642185,1651136332.674,7920
2642186,1651136332.676,7956
2642187,1651136332.678,7996
2642188,1651136332.68,8036
2642189,1651136332.682,8071
2642190,1651136332.684,8100
2642191,1651136332.686,8122
2642192,1651136332.688,8136
2642193,1651136332.69,8144
2642194,1651136332.692,8147
2642195,1651136332.694,8148
2642196,1651136332.696,8149
2642197,1651136332.698,8149
2642198,1651136332.7,8150
2642199,1651136332.702,8150
2642200,1651136332.704,8151
2642201,1651136332.706,8152
2642202,1651136332.708,8152
2642203,1651136332.71,8153
2642204,1651136332.712,8153
2642205,1651136332.714,8154
2642206,1651136332.716,8154
2642207,1651136332.718,8154
2642208,1651136332.72,8154
2642209,1651136332.722,8154
2642210,1651136332.724,8153
2642211,1651136332.726,8153
2642212,1651136332.728,8154
2642213,1651136332.73,8154
2642214,1651136332.732,8153
2642215,1651136332.734,8153
2642216,1651136332.736,8153
2642217,1651136332.738,8153
2642218,1651136332.74,8153
2642219,1651136332.742,8153
2642220,1651136332.744,8153
2642221,1651136332.746,8153
2642222,1651136332.748,8153
2642223,1651136332.75,8153
2642224,1651136332.752,8153
2642225,1651136332.754,8153
2642226,1651136332.756,8153
2642227,1651136332.758,8154
2642228,1651136332.76,8155
2642229,1651136332.762,8156
2642230,1651136332.764,8157
2642231,1651136332.766,8158
2642232,1651136332.768,8159
2642233,1651136332.77,8161
2642234,1651136332.772,8163
2642235,1651136332.774,8166
2642236,1651136332.776,8168
2642237,1651136332.778,8171
2642238,1651136332.78,8174
2642239,1651136332.782,8177
2642240,1651136332.784,8180
2642241,1651136332.786,8183
2642242,1651136332.788,8186
2642243,1651136332.79,8189
2642244,1651136332.792,8192
2642245,1651136332.794,8195
2642246,1651136332.796,8197
2642247,1651136332.798,8199
2642248,1651136332.8,8201
2642249,1651136332.802,8202
2642250,1651136332.804,8204
2642251,1651136332.806,8205
2642252,1651136332.808,8207
2642253,1651136332.81,8208
2642254,1651136332.812,8209
2642255,1651136332.814,8210
2642256,1651136332.816,8212
2642257,1651136332.818,8215
2642258,1651136332.82,8218
2642259,1651136332.822,8220
2642260,1651136332.824,8223
2642261,1651136332.826,8225
2642262,1651136332.828,8227
2642263,1651136332.83,8229
2642264,1651136332.832,8230
2642265,1651136332.834,8232
2642266,1651136332.836,8233
2642267,1651136332.838,8233
2642268,1651136332.84,8234
2642269,1651136332.842,8236
2642270,1651136332.844,8239
2642271,1651136332.846,8242
2642272,1651136332.848,8243
2642273,1651136332.85,8243
2642274,1651136332.852,8241
2642275,1651136332.854,8239
2642276,1651136332.856,8237
2642277,1651136332.858,8237
2642278,1651136332.86,8240
2642279,1651136332.862,8242
2642280,1651136332.864,8243
2642281,1651136332.866,8243
2642282,1651136332.868,8242
2642283,1651136332.87,8240
2642284,1651136332.872,8237
2642285,1651136332.874,8234
2642286,1651136332.876,8231
2642287,1651136332.878,8229
2642288,1651136332.88,8226
2642289,1651136332.882,8224
2642290,1651136332.884,8222
2642291,1651136332.886,8219
2642292,1651136332.888,8216
2642293,1651136332.89,8212
2642294,1651136332.892,8208
2642295,1651136332.894,8205
2642296,1651136332.896,8203
2642297,1651136332.898,8201
2642298,1651136332.9,8199
2642299,1651136332.902,8197
2642300,1651136332.904,8193
2642301,1651136332.906,8190
2642302,1651136332.908,8188
2642303,1651136332.91,8186
2642304,1651136332.912,8185
2642305,1651136332.914,8184
2642306,1651136332.916,8183
2642307,1651136332.918,8183
2642308,1651136332.92,8182
2642309,1651136332.922,8181
2642310,1651136332.924,8180
2642311,1651136332.926,8180
2642312,1651136332.928,8179
2642313,1651136332.93,8177
2642314,1651136332.932,8176
2642315,1651136332.934,8175
2642316,1651136332.936,8175
2642317,1651136332.938,8175
2642318,1651136332.94,8175
2642319,1651136332.942,8175
2642320,1651136332.944,8174
2642321,1651136332.946,8174
2642322,1651136332.948,8173
2642323,1651136332.95,8173
2642324,1651136332.952,8172
2642325,1651136332.954,8172
2642326,1651136332.956,8172
2642327,1651136332.958,8172
2642328,1651136332.96,8172
2642329,1651136332.962,8172
2642330,1651136332.964,8172
2642331,1651136332.966,8172
2642332,1651136332.968,8172
2642333,1651136332.97,8172
2642334,1651136332.972,8173
2642335,1651136332.974,8173
2642336,1651136332.976,8174
2642337,1651136332.978,8175
2642338,1651136332.98,8175
2642339,1651136332.982,8175
2642340,1651136332.984,8176
2642341,1651136332.986,8176
2642342,1651136332.988,8177
2642343,1651136332.99,8178
2642344,1651136332.992,8178
2642345,1651136332.994,8179
2642346,1651136332.996,8179
2642347,1651136332.998,8180
2642348,1651136333.0,8184
2642349,1651136333.002,8194
2642350,1651136333.004,8213
2642351,1651136333.006,8246
2642352,1651136333.008,8293
2642353,1651136333.01,8350
2642354,1651136333.012,8414
2642355,1651136333.014,8480
2642356,1651136333.016,8541
2642357,1651136333.018,8573
2642358,1651136333.02,8543
2642359,1651136333.022,8446
2642360,1651136333.024,8306
2642361,1651136333.026,8161
2642362,1651136333.028,8039
2642363,1651136333.03,7955
2642364,1651136333.032,7913
2642365,1651136333.034,7905
2642366,1651136333.036,7925
2642367,1651136333.038,7962
2642368,1651136333.04,8004
2642369,1651136333.042,8045
2642370,1651136333.044,8081
2642371,1651136333.046,8108
2642372,1651136333.048,8127
2642373,1651136333.05,8139
2642374,1651136333.052,8146
2642375,1651136333.054,8149
2642376,1651136333.056,8150
2642377,1651136333.058,8151
2642378,1651136333.06,8151
2642379,1651136333.062,8152
2642380,1651136333.064,8153
2642381,1651136333.066,8153
2642382,1651136333.068,8154
2642383,1651136333.07,8155
2642384,1651136333.072,8155
2642385,1651136333.074,8155
2642386,1651136333.076,8155
2642387,1651136333.078,8155
2642388,1651136333.08,8155
2642389,1651136333.082,8156
2642390,1651136333.084,8156
2642391,1651136333.086,8156
2642392,1651136333.088,8156
2642393,1651136333.09,8156
2642394,1651136333.092,8156
2642395,1651136333.094,8156
2642396,1651136333.096,8156
2642397,1651136333.098,8156
2642398,1651136333.1,8156
2642399,1651136333.102,8156
2642400,1651136333.104,8155
2642401,1651136333.106,8155
2642402,1651136333.108,8155
2642403,1651136333.11,8155
2642404,1651136333.112,8156
2642405,1651136333.114,8156
2642406,1651136333.116,8156
2642407,1651136333.118,8156
2642408,1651136333.12,8157
2642409,1651136333.122,8157
2642410,1651136333.124,8158
2642411,1651136333.126,8159
2642412,1651136333.128,8161
2642413,1651136333.13,8163
2642414,1651136333.132,8165
2642415,1651136333.134,8167
2642416,1651136333.136,8169
2642417,1651136333.138,8172
2642418,1651136333.14,8175
2642419,1651136333.142,8178
2642420,1651136333.144,8181
2642421,1651136333.146,8184
2642422,1651136333.148,8187
2642423,1651136333.15,8190
2642424,1651136333.152,8193
2642425,1651136333.154,8195
2642426,1651136333.156,8198
2642427,1651136333.158,8200
2642428,1651136333.16,8202
2642429,1651136333.162,8204
2642430,1651136333.164,8205
2642431,1651136333.166,8207
2642432,1651136333.168,8208
2642433,1651136333.17,8208
2642434,1651136333.172,8210
2642435,1651136333.174,8211
2642436,1651136333.176,8213
2642437,1651136333.178,8215
2642438,1651136333.18,8218
2642439,1651136333.182,8221
2642440,1651136333.184,8223
2642441,1651136333.186,8225
2642442,1651136333.188,8228
2642443,1651136333.19,8230
2642444,1651136333.192,8232
2642445,1651136333.194,8233
2642446,1651136333.196,8234
2642447,1651136333.198,8235
2642448,1651136333.2,8235
2642449,1651136333.202,8236
2642450,1651136333.204,8239
2642451,1651136333.206,8242
2642452,1651136333.208,8245
2642453,1651136333.21,8246
2642454,1651136333.212,8246
2642455,1651136333.214,8243
2642456,1651136333.216,8241
2642457,1651136333.218,8239
2642458,1651136333.22,8240
2642459,1651136333.222,8242
2642460,1651136333.224,8244
2642461,1651136333.226,8245
2642462,1651136333.228,8246
2642463,1651136333.23,8245
2642464,1651136333.232,8243
2642465,1651136333.234,8240
2642466,1651136333.236,8237
2642467,1651136333.238,8234
2642468,1651136333.24,8232
2642469,1651136333.242,8229
2642470,1651136333.244,8227
2642471,1651136333.246,8226
2642472,1651136333.248,8223
2642473,1651136333.25,8219
2642474,1651136333.252,8215
2642475,1651136333.254,8210
2642476,1651136333.256,8206
2642477,1651136333.258,8204
2642478,1651136333.26,8202
2642479,1651136333.262,8200
2642480,1651136333.264,8198
2642481,1651136333.266,8196
2642482,1651136333.268,8193
2642483,1651136333.27,8191
2642484,1651136333.272,8189
2642485,1651136333.274,8188
2642486,1651136333.276,8187
2642487,1651136333.278,8187
2642488,1651136333.28,8186
2642489,1651136333.282,8184
2642490,1651136333.284,8183
2642491,1651136333.286,8182
2642492,1651136333.288,8182
2642493,1651136333.29,8181
2642494,1651136333.292,8181
2642495,1651136333.294,8180
2642496,1651136333.296,8180
2642497,1651136333.298,8179
2642498,1651136333.3,8178
2642499,1651136333.302,8178
2642500,1651136333.304,8177
2642501,1651136333.306,8177
2642502,1651136333.308,8177
2642503,1651136333.31,8176
2642504,1651136333.312,8175
2642505,1651136333.314,8175
2642506,1651136333.316,8175
2642507,1651136333.318,8174
2642508,1651136333.32,8174
2642509,1651136333.322,8175
2642510,1651136333.324,8175
2642511,1651136333.326,8175
2642512,1651136333.328,8175
2642513,1651136333.33,8175
2642514,1651136333.332,8174
2642515,1651136333.334,8174
2642516,1651136333.336,8175
2642517,1651136333.338,8176
2642518,1651136333.34,8177
2642519,1651136333.342,8177
2642520,1651136333.344,8178
2642521,1651136333.346,8178
2642522,1651136333.348,8178
2642523,1651136333.35,8178
2642524,1651136333.352,8178
2642525,1651136333.354,8179
2642526,1651136333.356,8179
2642527,1651136333.358,8179
2642528,1651136333.36,8180
2642529,1651136333.362,8185
2642530,1651136333.364,8195
2642531,1651136333.366,8216
2642532,1651136333.368,8251
2642533,1651136333.37,8298
2642534,1651136333.372,8352
2642535,1651136333.374,8410
2642536,1651136333.376,8472
2642537,1651136333.378,8531
2642538,1651136333.38,8565
2642539,1651136333.382,8543
2642540,1651136333.384,8449
2642541,1651136333.386,8306
2642542,1651136333.388,8155
2642543,1651136333.39,8032
2642544,1651136333.392,7952
2642545,1651136333.394,7912
2642546,1651136333.396,7905
2642547,1651136333.398,7922
2642548,1651136333.4,7957
2642549,1651136333.402,7999
2642550,1651136333.404,8040
2642551,1651136333.406,8077
2642552,1651136333.408,8108
2642553,1651136333.41,8130
2642554,1651136333.412,8144
2642555,1651136333.414,8150
2642556,1651136333.416,8153
2642557,1651136333.418,8153
2642558,1651136333.42,8153
2642559,1651136333.422,8154
2642560,1651136333.424,8154
2642561,1651136333.426,8155
2642562,1651136333.428,8156
2642563,1651136333.43,8157
2642564,1651136333.432,8157
2642565,1651136333.434,8157
2642566,1651136333.436,8156
2642567,1651136333.438,8157
2642568,1651136333.44,8157
2642569,1651136333.442,8157
2642570,1651136333.444,8158
2642571,1651136333.446,8158
2642572,1651136333.448,8158
2642573,1651136333.45,8158
2642574,1651136333.452,8158
2642575,1651136333.454,8158
2642576,1651136333.456,8157
2642577,1651136333.458,8157
2642578,1651136333.46,8157
2642579,1651136333.462,8157
2642580,1651136333.464,8157
2642581,1651136333.466,8157
2642582,1651136333.468,8157
2642583,1651136333.47,8157
2642584,1651136333.472,8157
2642585,1651136333.474,8157
2642586,1651136333.476,8157
2642587,1651136333.478,8158
2642588,1651136333.48,8158
2642589,1651136333.482,8158
2642590,1651136333.484,8159
2642591,1651136333.486,8160
2642592,1651136333.488,8161
2642593,1651136333.49,8163
2642594,1651136333.492,8164
2642595,1651136333.494,8166
2642596,1651136333.496,8168
2642597,1651136333.498,8171
2642598,1651136333.5,8173
2642599,1651136333.502,8176
2642600,1651136333.504,8179
2642601,1651136333.506,8182
2642602,1651136333.508,8185
2642603,1651136333.51,8188
2642604,1651136333.512,8191
2642605,1651136333.514,8194
2642606,1651136333.516,8196
2642607,1651136333.518,8199
2642608,1651136333.52,8201
2642609,1651136333.522,8203
2642610,1651136333.524,8205
2642611,1651136333.526,8207
2642612,1651136333.528,8209
2642613,1651136333.53,8210
2642614,1651136333.532,8211
2642615,1651136333.534,8212
2642616,1651136333.536,8213
2642617,1651136333.538,8214
2642618,1651136333.54,8216
2642619,1651136333.542,8219
2642620,1651136333.544,8221
2642621,1651136333.546,8223
2642622,1651136333.548,8225
2642623,1651136333.55,8226
2642624,1651136333.552,8229
2642625,1651136333.554,8231
2642626,1651136333.556,8233
2642627,1651136333.558,8234
2642628,1651136333.56,8235
2642629,1651136333.562,8235
2642630,1651136333.564,8236
2642631,1651136333.566,8238
2642632,1651136333.568,8241
2642633,1651136333.57,8244
2642634,1651136333.572,8246
2642635,1651136333.574,8246
2642636,1651136333.576,8245
2642637,1651136333.578,8242
2642638,1651136333.58,8240
2642639,1651136333.582,8239
2642640,1651136333.584,8241
2642641,1651136333.586,8243
2642642,1651136333.588,8244
2642643,1651136333.59,8244
2642644,1651136333.592,8244
2642645,1651136333.594,8242
2642646,1651136333.596,8240
2642647,1651136333.598,8237
2642648,1651136333.6,8234
2642649,1651136333.602,8231
2642650,1651136333.604,8228
2642651,1651136333.606,8226
2642652,1651136333.608,8224
2642653,1651136333.61,8222
2642654,1651136333.612,8219
2642655,1651136333.614,8215
2642656,1651136333.616,8211
2642657,1651136333.618,8206
2642658,1651136333.62,8203
2642659,1651136333.622,8201
2642660,1651136333.624,8200
2642661,1651136333.626,8198
2642662,1651136333.628,8195
2642663,1651136333.63,8193
2642664,1651136333.632,8190
2642665,1651136333.634,8188
2642666,1651136333.636,8187
2642667,1651136333.638,8186
2642668,1651136333.64,8185
2642669,1651136333.642,8185
2642670,1651136333.644,8184
2642671,1651136333.646,8183
2642672,1651136333.648,8183
2642673,1651136333.65,8182
2642674,1651136333.652,8181
2642675,1651136333.654,8181
2642676,1651136333.656,8181
2642677,1651136333.658,8181
2642678,1651136333.66,8180
2642679,1651136333.662,8180
2642680,1651136333.664,8179
2642681,1651136333.666,8178
2642682,1651136333.668,8177
2642683,1651136333.67,8176
2642684,1651136333.672,8176
2642685,1651136333.674,8175
2642686,1651136333.676,8175
2642687,1651136333.678,8176
2642688,1651136333.68,8175
2642689,1651136333.682,8175
2642690,1651136333.684,8174
2642691,1651136333.686,8174
2642692,1651136333.688,8174
2642693,1651136333.69,8174
2642694,1651136333.692,8175
2642695,1651136333.694,8175
2642696,1651136333.696,8176
2642697,1651136333.698,8176
2642698,1651136333.7,8176
2642699,1651136333.702,8176
2642700,1651136333.704,8176
2642701,1651136333.706,8177
2642702,1651136333.708,8177
2642703,1651136333.71,8178
2642704,1651136333.712,8178
2642705,1651136333.714,8179
2642706,1651136333.716,8179
2642707,1651136333.718,8180
2642708,1651136333.72,8180
2642709,1651136333.722,8181
2642710,1651136333.724,8183
2642711,1651136333.726,8189
2642712,1651136333.728,8202
2642713,1651136333.73,8228
2642714,1651136333.732,8269
2642715,1651136333.734,8321
2642716,1651136333.736,8382
2642717,1651136333.738,8448
2642718,1651136333.74,8512
2642719,1651136333.742,8561
2642720,1651136333.744,8569
2642721,1651136333.746,8511
2642722,1651136333.748,8389
2642723,1651136333.75,8236
2642724,1651136333.752,8094
2642725,1651136333.754,7990
2642726,1651136333.756,7929
2642727,1651136333.758,7906
2642728,1651136333.76,7913
2642729,1651136333.762,7941
2642730,1651136333.764,7979
2642731,1651136333.766,8020
2642732,1651136333.768,8058
2642733,1651136333.77,8092
2642734,1651136333.772,8118
2642735,1651136333.774,8136
2642736,1651136333.776,8146
2642737,1651136333.778,8151
2642738,1651136333.78,8152
2642739,1651136333.782,8153
2642740,1651136333.784,8153
2642741,1651136333.786,8153
2642742,1651136333.788,8153
2642743,1651136333.79,8154
2642744,1651136333.792,8155
2642745,1651136333.794,8156
2642746,1651136333.796,8156
2642747,1651136333.798,8156
2642748,1651136333.8,8157
2642749,1651136333.802,8157
2642750,1651136333.804,8157
2642751,1651136333.806,8157
2642752,1651136333.808,8157
2642753,1651136333.81,8157
2642754,1651136333.812,8157
2642755,1651136333.814,8157
2642756,1651136333.816,8156
2642757,1651136333.818,8156
2642758,1651136333.82,8156
2642759,1651136333.822,8156
2642760,1651136333.824,8157
2642761,1651136333.826,8157
2642762,1651136333.828,8156
2642763,1651136333.83,8156
2642764,1651136333.832,8156
2642765,1651136333.834,8156
2642766,1651136333.836,8156
2642767,1651136333.838,8156
2642768,1651136333.84,8156
2642769,1651136333.842,8157
2642770,1651136333.844,8157
2642771,1651136333.846,8158
2642772,1651136333.848,8159
2642773,1651136333.85,8160
2642774,1651136333.852,8161
2642775,1651136333.854,8162
2642776,1651136333.856,8164
2642777,1651136333.858,8167
2642778,1651136333.86,8169
2642779,1651136333.862,8172
2642780,1651136333.864,8175
2642781,1651136333.866,8178
2642782,1651136333.868,8181
2642783,1651136333.87,8184
2642784,1651136333.872,8187
2642785,1651136333.874,8190
2642786,1651136333.876,8193
2642787,1651136333.878,8195
2642788,1651136333.88,8198
2642789,1651136333.882,8200
2642790,1651136333.884,8202
2642791,1651136333.886,8204
2642792,1651136333.888,8206
2642793,1651136333.89,8208
2642794,1651136333.892,8209
2642795,1651136333.894,8210
2642796,1651136333.896,8211
2642797,1651136333.898,8212
2642798,1651136333.9,8213
2642799,1651136333.902,8215
2642800,1651136333.904,8217
2642801,1651136333.906,8220
2642802,1651136333.908,8223
2642803,1651136333.91,8225
2642804,1651136333.912,8227
2642805,1651136333.914,8229
2642806,1651136333.916,8231
2642807,1651136333.918,8233
2642808,1651136333.92,8234
2642809,1651136333.922,8235
2642810,1651136333.924,8236
2642811,1651136333.926,8236
2642812,1651136333.928,8238
2642813,1651136333.93,8241
2642814,1651136333.932,8244
2642815,1651136333.934,8246
2642816,1651136333.936,8248
2642817,1651136333.938,8247
2642818,1651136333.94,8244
2642819,1651136333.942,8241
2642820,1651136333.944,8239
2642821,1651136333.946,8240
2642822,1651136333.948,8242
2642823,1651136333.95,8244
2642824,1651136333.952,8246
2642825,1651136333.954,8246
2642826,1651136333.956,8245
2642827,1651136333.958,8243
2642828,1651136333.96,8240
2642829,1651136333.962,8237
2642830,1651136333.964,8234
2642831,1651136333.966,8231
2642832,1651136333.968,8228
2642833,1651136333.97,8226
2642834,1651136333.972,8224
2642835,1651136333.974,8221
2642836,1651136333.976,8217
2642837,1651136333.978,8213
2642838,1651136333.98,8209
2642839,1651136333.982,8205
2642840,1651136333.984,8203
2642841,1651136333.986,8201
2642842,1651136333.988,8199
2642843,1651136333.99,8197
2642844,1651136333.992,8195
2642845,1651136333.994,8192
2642846,1651136333.996,8189
2642847,1651136333.998,8188
2642848,1651136334.0,8187
2642849,1651136334.002,8186
2642850,1651136334.004,8185
2642851,1651136334.006,8184
2642852,1651136334.008,8184
2642853,1651136334.01,8183
2642854,1651136334.012,8182
2642855,1651136334.014,8182
2642856,1651136334.016,8181
2642857,1651136334.018,8181
2642858,1651136334.02,8180
2642859,1651136334.022,8180
2642860,1651136334.024,8179
2642861,1651136334.026,8179
2642862,1651136334.028,8179
2642863,1651136334.03,8178
2642864,1651136334.032,8178
2642865,1651136334.034,8177
2642866,1651136334.036,8176
2642867,1651136334.038,8176
2642868,1651136334.04,8176
2642869,1651136334.042,8175
2642870,1651136334.044,8175
2642871,1651136334.046,8175
2642872,1651136334.048,8175
2642873,1651136334.05,8174
2642874,1651136334.052,8174
2642875,1651136334.054,8174
2642876,1651136334.056,8174
2642877,1651136334.058,8174
2642878,1651136334.06,8174
2642879,1651136334.062,8175
2642880,1651136334.064,8175
2642881,1651136334.066,8175
2642882,1651136334.068,8176
2642883,1651136334.07,8176
2642884,1651136334.072,8177
2642885,1651136334.074,8177
2642886,1651136334.076,8178
2642887,1651136334.078,8178
2642888,1651136334.08,8178
2642889,1651136334.082,8178
2642890,1651136334.084,8179
2642891,1651136334.086,8180
2642892,1651136334.088,8183
2642893,1651136334.09,8191
2642894,1651136334.092,8209
2642895,1651136334.094,8240
2642896,1651136334.096,8285
2642897,1651136334.098,8340
2642898,1651136334.1,8402
2642899,1651136334.102,8467
2642900,1651136334.104,8528
2642901,1651136334.106,8562
2642902,1651136334.108,8542
2642903,1651136334.11,8457
2642904,1651136334.112,8324
2642905,1651136334.114,8177
2642906,1651136334.116,8051
2642907,1651136334.118,7964
2642908,1651136334.12,7918
2642909,1651136334.122,7906
2642910,1651136334.124,7922
2642911,1651136334.126,7957
2642912,1651136334.128,7999
2642913,1651136334.13,8040
2642914,1651136334.132,8075
2642915,1651136334.134,8103
2642916,1651136334.136,8124
2642917,1651136334.138,8138
2642918,1651136334.14,8146
2642919,1651136334.142,8149
2642920,1651136334.144,8150
2642921,1651136334.146,8150
2642922,1651136334.148,8151
2642923,1651136334.15,8151
2642924,1651136334.152,8152
2642925,1651136334.154,8152
2642926,1651136334.156,8153
2642927,1651136334.158,8153
2642928,1651136334.16,8154
2642929,1651136334.162,8154
2642930,1651136334.164,8155
2642931,1651136334.166,8155
2642932,1651136334.168,8155
2642933,1651136334.17,8155
2642934,1651136334.172,8155
2642935,1651136334.174,8155
2642936,1651136334.176,8155
2642937,1651136334.178,8155
2642938,1651136334.18,8155
2642939,1651136334.182,8154
2642940,1651136334.184,8154
2642941,1651136334.186,8154
2642942,1651136334.188,8154
2642943,1651136334.19,8154
2642944,1651136334.192,8155
2642945,1651136334.194,8155
2642946,1651136334.196,8155
2642947,1651136334.198,8155
2642948,1651136334.2,8154
2642949,1651136334.202,8154
2642950,1651136334.204,8155
2642951,1651136334.206,8155
2642952,1651136334.208,8156
2642953,1651136334.21,8157
2642954,1651136334.212,8158
2642955,1651136334.214,8159
2642956,1651136334.216,8161
2642957,1651136334.218,8163
2642958,1651136334.22,8164
2642959,1651136334.222,8166
2642960,1651136334.224,8169
2642961,1651136334.226,8171
2642962,1651136334.228,8175
2642963,1651136334.23,8178
2642964,1651136334.232,8181
2642965,1651136334.234,8184
2642966,1651136334.236,8187
2642967,1651136334.238,8190
2642968,1651136334.24,8193
2642969,1651136334.242,8195
2642970,1651136334.244,8197
2642971,1651136334.246,8200
2642972,1651136334.248,8202
2642973,1651136334.25,8204
2642974,1651136334.252,8205
2642975,1651136334.254,8207
2642976,1651136334.256,8208
2642977,1651136334.258,8209
2642978,1651136334.26,8209
2642979,1651136334.262,8210
2642980,1651136334.264,8211
2642981,1651136334.266,8213
2642982,1651136334.268,8216
2642983,1651136334.27,8218
2642984,1651136334.272,8221
2642985,1651136334.274,8223
2642986,1651136334.276,8225
2642987,1651136334.278,8227
2642988,1651136334.28,8229
2642989,1651136334.282,8231
2642990,1651136334.284,8232
2642991,1651136334.286,8233
2642992,1651136334.288,8234
2642993,1651136334.29,8234
2642994,1651136334.292,8235
2642995,1651136334.294,8238
2642996,1651136334.296,8241
2642997,1651136334.298,8243
2642998,1651136334.3,8244
2642999,1651136334.302,8243
2643000,1651136334.304,8240
2643001,1651136334.306,8237
2643002,1651136334.308,8236
2643003,1651136334.31,8238
2643004,1651136334.312,8240
2643005,1651136334.314,8242
2643006,1651136334.316,8243
2643007,1651136334.318,8243
2643008,1651136334.32,8241
2643009,1651136334.322,8238
2643010,1651136334.324,8235
2643011,1651136334.326,8233
2643012,1651136334.328,8230
2643013,1651136334.33,8227
2643014,1651136334.332,8225
2643015,1651136334.334,8223
2643016,1651136334.336,8220
2643017,1651136334.338,8218
2643018,1651136334.34,8214
2643019,1651136334.342,8210
2643020,1651136334.344,8205
2643021,1651136334.346,8201
2643022,1651136334.348,8199
2643023,1651136334.35,8196
2643024,1651136334.352,8195
2643025,1651136334.354,8192
2643026,1651136334.356,8190
2643027,1651136334.358,8187
2643028,1651136334.36,8185
2643029,1651136334.362,8184
2643030,1651136334.364,8183
2643031,1651136334.366,8182
2643032,1651136334.368,8180
2643033,1651136334.37,8179
2643034,1651136334.372,8179
2643035,1651136334.374,8178
2643036,1651136334.376,8178
2643037,1651136334.378,8178
2643038,1651136334.38,8177
2643039,1651136334.382,8176
2643040,1651136334.384,8176
2643041,1651136334.386,8175
2643042,1651136334.388,8174
2643043,1651136334.39,8174
2643044,1651136334.392,8173
2643045,1651136334.394,8173
2643046,1651136334.396,8173
2643047,1651136334.398,8172
2643048,1651136334.4,8172
2643049,1651136334.402,8171
2643050,1651136334.404,8170
2643051,1651136334.406,8170
2643052,1651136334.408,8170
2643053,1651136334.41,8170
2643054,1651136334.412,8170
2643055,1651136334.414,8169
2643056,1651136334.416,8169
2643057,1651136334.418,8169
2643058,1651136334.42,8169
2643059,1651136334.422,8170
2643060,1651136334.424,8170
2643061,1651136334.426,8171
2643062,1651136334.428,8171
2643063,1651136334.43,8171
2643064,1651136334.432,8171
2643065,1651136334.434,8171
2643066,1651136334.436,8172
2643067,1651136334.438,8172
2643068,1651136334.44,8173
2643069,1651136334.442,8174
2643070,1651136334.444,8175
2643071,1651136334.446,8175
2643072,1651136334.448,8175
2643073,1651136334.45,8177
2643074,1651136334.452,8182
2643075,1651136334.454,8193
2643076,1651136334.456,8214
2643077,1651136334.458,8246
2643078,1651136334.46,8290
2643079,1651136334.462,8346
2643080,1651136334.464,8408
2643081,1651136334.466,8474
2643082,1651136334.468,8536
2643083,1651136334.47,8570
2643084,1651136334.472,8546
2643085,1651136334.474,8448
2643086,1651136334.476,8301
2643087,1651136334.478,8148
2643088,1651136334.48,8027
2643089,1651136334.482,7948
2643090,1651136334.484,7910
2643091,1651136334.486,7904
2643092,1651136334.488,7924
2643093,1651136334.49,7960
2643094,1651136334.492,8002
2643095,1651136334.494,8043
2643096,1651136334.496,8078
2643097,1651136334.498,8107
2643098,1651136334.5,8127
2643099,1651136334.502,8139
2643100,1651136334.504,8145
2643101,1651136334.506,8148
2643102,1651136334.508,8149
2643103,1651136334.51,8150
2643104,1651136334.512,8150
2643105,1651136334.514,8150
2643106,1651136334.516,8151
2643107,1651136334.518,8151
2643108,1651136334.52,8152
2643109,1651136334.522,8153
2643110,1651136334.524,8154
2643111,1651136334.526,8154
2643112,1651136334.528,8154
2643113,1651136334.53,8154
2643114,1651136334.532,8154
2643115,1651136334.534,8153
2643116,1651136334.536,8153
2643117,1651136334.538,8153
2643118,1651136334.54,8153
2643119,1651136334.542,8153
2643120,1651136334.544,8154
2643121,1651136334.546,8154
2643122,1651136334.548,8155
2643123,1651136334.55,8155
2643124,1651136334.552,8154
2643125,1651136334.554,8154
2643126,1651136334.556,8154
2643127,1651136334.558,8154
2643128,1651136334.56,8154
2643129,1651136334.562,8154
2643130,1651136334.564,8154
2643131,1651136334.566,8154
2643132,1651136334.568,8155
2643133,1651136334.57,8155
2643134,1651136334.572,8156
2643135,1651136334.574,8157
2643136,1651136334.576,8158
2643137,1651136334.578,8159
2643138,1651136334.58,8160
2643139,1651136334.582,8162
2643140,1651136334.584,8164
2643141,1651136334.586,8167
2643142,1651136334.588,8169
2643143,1651136334.59,8171
2643144,1651136334.592,8174
2643145,1651136334.594,8177
2643146,1651136334.596,8180
2643147,1651136334.598,8184
2643148,1651136334.6,8187
2643149,1651136334.602,8190
2643150,1651136334.604,8193
2643151,1651136334.606,8196
2643152,1651136334.608,8199
2643153,1651136334.61,8201
2643154,1651136334.612,8204
2643155,1651136334.614,8205
2643156,1651136334.616,8206
2643157,1651136334.618,8207
2643158,1651136334.62,8208
2643159,1651136334.622,8210
2643160,1651136334.624,8211
2643161,1651136334.626,8212
2643162,1651136334.628,8213
2643163,1651136334.63,8215
2643164,1651136334.632,8217
2643165,1651136334.634,8219
2643166,1651136334.636,8221
2643167,1651136334.638,8224
2643168,1651136334.64,8226
2643169,1651136334.642,8228
2643170,1651136334.644,8230
2643171,1651136334.646,8232
2643172,1651136334.648,8234
2643173,1651136334.65,8234
2643174,1651136334.652,8235
2643175,1651136334.654,8236
2643176,1651136334.656,8238
2643177,1651136334.658,8241
2643178,1651136334.66,8244
2643179,1651136334.662,8246
2643180,1651136334.664,8246
2643181,1651136334.666,8245
2643182,1651136334.668,8242
2643183,1651136334.67,8239
2643184,1651136334.672,8239
2643185,1651136334.674,8240
2643186,1651136334.676,8242
2643187,1651136334.678,8244
2643188,1651136334.68,8245
2643189,1651136334.682,8244
2643190,1651136334.684,8242
2643191,1651136334.686,8240
2643192,1651136334.688,8237
2643193,1651136334.69,8234
2643194,1651136334.692,8232
2643195,1651136334.694,8229
2643196,1651136334.696,8227
2643197,1651136334.698,8225
2643198,1651136334.7,8223
2643199,1651136334.702,8219
2643200,1651136334.704,8216
2643201,1651136334.706,8212
2643202,1651136334.708,8208
2643203,1651136334.71,8204
2643204,1651136334.712,8202
2643205,1651136334.714,8200
2643206,1651136334.716,8198
2643207,1651136334.718,8195
2643208,1651136334.72,8193
2643209,1651136334.722,8190
2643210,1651136334.724,8188
2643211,1651136334.726,8186
2643212,1651136334.728,8186
2643213,1651136334.73,8185
2643214,1651136334.732,8184
2643215,1651136334.734,8183
2643216,1651136334.736,8182
2643217,1651136334.738,8182
2643218,1651136334.74,8181
2643219,1651136334.742,8180
2643220,1651136334.744,8179
2643221,1651136334.746,8179
2643222,1651136334.748,8178
2643223,1651136334.75,8177
2643224,1651136334.752,8177
2643225,1651136334.754,8176
2643226,1651136334.756,8176
2643227,1651136334.758,8175
2643228,1651136334.76,8175
2643229,1651136334.762,8175
2643230,1651136334.764,8174
2643231,1651136334.766,8174
2643232,1651136334.768,8174
2643233,1651136334.77,8174
2643234,1651136334.772,8174
2643235,1651136334.774,8174
2643236,1651136334.776,8174
2643237,1651136334.778,8174
2643238,1651136334.78,8174
2643239,1651136334.782,8174
2643240,1651136334.784,8174
2643241,1651136334.786,8174
2643242,1651136334.788,8175
2643243,1651136334.79,8175
2643244,1651136334.792,8175
2643245,1651136334.794,8175
2643246,1651136334.796,8175
2643247,1651136334.798,8175
2643248,1651136334.8,8176
2643249,1651136334.802,8176
2643250,1651136334.804,8177
2643251,1651136334.806,8178
2643252,1651136334.808,8179
2643253,1651136334.81,8179
2643254,1651136334.812,8179
2643255,1651136334.814,8181
2643256,1651136334.816,8185
2643257,1651136334.818,8197
2643258,1651136334.82,8219
2643259,1651136334.822,8256
2643260,1651136334.824,8305
2643261,1651136334.826,8363
2643262,1651136334.828,8422
2643263,1651136334.83,8484
2643264,1651136334.832,8541
2643265,1651136334.834,8570
2643266,1651136334.836,8540
2643267,1651136334.838,8439
2643268,1651136334.84,8291
2643269,1651136334.842,8139
2643270,1651136334.844,8018
2643271,1651136334.846,7941
2643272,1651136334.848,7905
2643273,1651136334.85,7903
2643274,1651136334.852,7925
2643275,1651136334.854,7963
2643276,1651136334.856,8006
2643277,1651136334.858,8046
2643278,1651136334.86,8081
2643279,1651136334.862,8109
2643280,1651136334.864,8129
2643281,1651136334.866,8141
2643282,1651136334.868,8146
2643283,1651136334.87,8149
2643284,1651136334.872,8150
2643285,1651136334.874,8151
2643286,1651136334.876,8151
2643287,1651136334.878,8152
2643288,1651136334.88,8152
2643289,1651136334.882,8153
2643290,1651136334.884,8153
2643291,1651136334.886,8154
2643292,1651136334.888,8155
2643293,1651136334.89,8155
2643294,1651136334.892,8156
2643295,1651136334.894,8156
2643296,1651136334.896,8156
2643297,1651136334.898,8156
2643298,1651136334.9,8156
2643299,1651136334.902,8156
2643300,1651136334.904,8156
2643301,1651136334.906,8156
2643302,1651136334.908,8156
2643303,1651136334.91,8156
2643304,1651136334.912,8157
2643305,1651136334.914,8157
2643306,1651136334.916,8157
2643307,1651136334.918,8157
2643308,1651136334.92,8157
2643309,1651136334.922,8157
2643310,1651136334.924,8157
2643311,1651136334.926,8157
2643312,1651136334.928,8158
2643313,1651136334.93,8158
2643314,1651136334.932,8158
2643315,1651136334.934,8158
2643316,1651136334.936,8158
2643317,1651136334.938,8159
2643318,1651136334.94,8160
2643319,1651136334.942,8162
2643320,1651136334.944,8164
2643321,1651136334.946,8166
2643322,1651136334.948,8168
2643323,1651136334.95,8170
2643324,1651136334.952,8173
2643325,1651136334.954,8176
2643326,1651136334.956,8180
2643327,1651136334.958,8183
2643328,1651136334.96,8185
2643329,1651136334.962,8188
2643330,1651136334.964,8191
2643331,1651136334.966,8194
2643332,1651136334.968,8197
2643333,1651136334.97,8200
2643334,1651136334.972,8203
2643335,1651136334.974,8205
2643336,1651136334.976,8207
2643337,1651136334.978,8209
2643338,1651136334.98,8210
2643339,1651136334.982,8211
2643340,1651136334.984,8212
2643341,1651136334.986,8214
2643342,1651136334.988,8215
2643343,1651136334.99,8216
2643344,1651136334.992,8218
2643345,1651136334.994,8220
2643346,1651136334.996,8222
2643347,1651136334.998,8225
2643348,1651136335.0,8227
2643349,1651136335.002,8229
2643350,1651136335.004,8231
2643351,1651136335.006,8234
2643352,1651136335.008,8236
2643353,1651136335.01,8238
2643354,1651136335.012,8239
2643355,1651136335.014,8240
2643356,1651136335.016,8239
2643357,1651136335.018,8240
2643358,1651136335.02,8241
2643359,1651136335.022,8244
2643360,1651136335.024,8247
2643361,1651136335.026,8250
2643362,1651136335.028,8251
2643363,1651136335.03,8249
2643364,1651136335.032,8246
2643365,1651136335.034,8242
2643366,1651136335.036,8242
2643367,1651136335.038,8243
2643368,1651136335.04,8245
2643369,1651136335.042,8247
2643370,1651136335.044,8248
2643371,1651136335.046,8247
2643372,1651136335.048,8246
2643373,1651136335.05,8243
2643374,1651136335.052,8240
2643375,1651136335.054,8237
2643376,1651136335.056,8235
2643377,1651136335.058,8233
2643378,1651136335.06,8231
2643379,1651136335.062,8228
2643380,1651136335.064,8226
2643381,1651136335.066,8222
2643382,1651136335.068,8219
2643383,1651136335.07,8214
2643384,1651136335.072,8210
2643385,1651136335.074,8206
2643386,1651136335.076,8204
2643387,1651136335.078,8201
2643388,1651136335.08,8199
2643389,1651136335.082,8196
2643390,1651136335.084,8194
2643391,1651136335.086,8191
2643392,1651136335.088,8189
2643393,1651136335.09,8188
2643394,1651136335.092,8187
2643395,1651136335.094,8186
2643396,1651136335.096,8185
2643397,1651136335.098,8184
2643398,1651136335.1,8184
2643399,1651136335.102,8184
2643400,1651136335.104,8183
2643401,1651136335.106,8183
2643402,1651136335.108,8182
2643403,1651136335.11,8182
2643404,1651136335.112,8181
2643405,1651136335.114,8180
2643406,1651136335.116,8179
2643407,1651136335.118,8179
2643408,1651136335.12,8178
2643409,1651136335.122,8177
2643410,1651136335.124,8177
2643411,1651136335.126,8176
2643412,1651136335.128,8176
2643413,1651136335.13,8175
2643414,1651136335.132,8175
2643415,1651136335.134,8175
2643416,1651136335.136,8174
2643417,1651136335.138,8174
2643418,1651136335.14,8174
2643419,1651136335.142,8175
2643420,1651136335.144,8175
2643421,1651136335.146,8175
2643422,1651136335.148,8175
2643423,1651136335.15,8175
2643424,1651136335.152,8175
2643425,1651136335.154,8176
2643426,1651136335.156,8176
2643427,1651136335.158,8176
2643428,1651136335.16,8177
2643429,1651136335.162,8178
2643430,1651136335.164,8178
2643431,1651136335.166,8179
2643432,1651136335.168,8180
2643433,1651136335.17,8180
2643434,1651136335.172,8180
2643435,1651136335.174,8180
2643436,1651136335.176,8180
2643437,1651136335.178,8181
2643438,1651136335.18,8185
2643439,1651136335.182,8194
2643440,1651136335.184,8213
2643441,1651136335.186,8245
2643442,1651136335.188,8291
2643443,1651136335.19,8348
2643444,1651136335.192,8411
2643445,1651136335.194,8477
2643446,1651136335.196,8538
2643447,1651136335.198,8573
2643448,1651136335.2,8555
2643449,1651136335.202,8467
2643450,1651136335.204,8327
2643451,1651136335.206,8174
2643452,1651136335.208,8047
2643453,1651136335.21,7961
2643454,1651136335.212,7917
2643455,1651136335.214,7908
2643456,1651136335.216,7926
2643457,1651136335.218,7959
2643458,1651136335.22,7999
2643459,1651136335.222,8039
2643460,1651136335.224,8076
2643461,1651136335.226,8107
2643462,1651136335.228,8129
2643463,1651136335.23,8143
2643464,1651136335.232,8151
2643465,1651136335.234,8154
2643466,1651136335.236,8154
2643467,1651136335.238,8154
2643468,1651136335.24,8154
2643469,1651136335.242,8155
2643470,1651136335.244,8156
2643471,1651136335.246,8157
2643472,1651136335.248,8157
2643473,1651136335.25,8158
2643474,1651136335.252,8158
2643475,1651136335.254,8158
2643476,1651136335.256,8159
2643477,1651136335.258,8159
2643478,1651136335.26,8160
2643479,1651136335.262,8160
2643480,1651136335.264,8159
2643481,1651136335.266,8158
2643482,1651136335.268,8158
2643483,1651136335.27,8158
2643484,1651136335.272,8158
2643485,1651136335.274,8158
2643486,1651136335.276,8158
2643487,1651136335.278,8158
2643488,1651136335.28,8157
2643489,1651136335.282,8157
2643490,1651136335.284,8157
2643491,1651136335.286,8157
2643492,1651136335.288,8157
2643493,1651136335.29,8158
2643494,1651136335.292,8158
2643495,1651136335.294,8158
2643496,1651136335.296,8159
2643497,1651136335.298,8159
2643498,1651136335.3,8160
2643499,1651136335.302,8161
2643500,1651136335.304,8162
2643501,1651136335.306,8163
2643502,1651136335.308,8164
2643503,1651136335.31,8166
2643504,1651136335.312,8168
2643505,1651136335.314,8170
2643506,1651136335.316,8173
2643507,1651136335.318,8176
2643508,1651136335.32,8178
2643509,1651136335.322,8181
2643510,1651136335.324,8184
2643511,1651136335.326,8188
2643512,1651136335.328,8191
2643513,1651136335.33,8193
2643514,1651136335.332,8196
2643515,1651136335.334,8199
2643516,1651136335.336,8201
2643517,1651136335.338,8204
2643518,1651136335.34,8207
2643519,1651136335.342,8209
2643520,1651136335.344,8211
2643521,1651136335.346,8213
2643522,1651136335.348,8214
2643523,1651136335.35,8215
2643524,1651136335.352,8216
2643525,1651136335.354,8217
2643526,1651136335.356,8218
2643527,1651136335.358,8220
2643528,1651136335.36,8222
2643529,1651136335.362,8224
2643530,1651136335.364,8226
2643531,1651136335.366,8228
2643532,1651136335.368,8231
2643533,1651136335.37,8233
2643534,1651136335.372,8235
2643535,1651136335.374,8237
2643536,1651136335.376,8238
2643537,1651136335.378,8239
2643538,1651136335.38,8239
2643539,1651136335.382,8239
2643540,1651136335.384,8240
2643541,1651136335.386,8243
2643542,1651136335.388,8246
2643543,1651136335.39,8249
2643544,1651136335.392,8251
2643545,1651136335.394,8250
2643546,1651136335.396,8246
2643547,1651136335.398,8243
2643548,1651136335.4,8241
2643549,1651136335.402,8242
2643550,1651136335.404,8243
2643551,1651136335.406,8245
2643552,1651136335.408,8247
2643553,1651136335.41,8247
2643554,1651136335.412,8246
2643555,1651136335.414,8244
2643556,1651136335.416,8241
2643557,1651136335.418,8238
2643558,1651136335.42,8235
2643559,1651136335.422,8232
2643560,1651136335.424,8230
2643561,1651136335.426,8228
2643562,1651136335.428,8225
2643563,1651136335.43,8222
2643564,1651136335.432,8218
2643565,1651136335.434,8214
2643566,1651136335.436,8210
2643567,1651136335.438,8207
2643568,1651136335.44,8204
2643569,1651136335.442,8202
2643570,1651136335.444,8200
2643571,1651136335.446,8198
2643572,1651136335.448,8195
2643573,1651136335.45,8192
2643574,1651136335.452,8189
2643575,1651136335.454,8187
2643576,1651136335.456,8186
2643577,1651136335.458,8185
2643578,1651136335.46,8185
2643579,1651136335.462,8185
2643580,1651136335.464,8184
2643581,1651136335.466,8184
2643582,1651136335.468,8183
2643583,1651136335.47,8183
2643584,1651136335.472,8182
2643585,1651136335.474,8181
2643586,1651136335.476,8181
2643587,1651136335.478,8181
2643588,1651136335.48,8180
2643589,1651136335.482,8180
2643590,1651136335.484,8179
2643591,1651136335.486,8179
2643592,1651136335.488,8179
2643593,1651136335.49,8179
2643594,1651136335.492,8178
2643595,1651136335.494,8178
2643596,1651136335.496,8177
2643597,1651136335.498,8176
2643598,1651136335.5,8175
2643599,1651136335.502,8175
2643600,1651136335.504,8175
2643601,1651136335.506,8175
2643602,1651136335.508,8175
2643603,1651136335.51,8176
2643604,1651136335.512,8175
2643605,1651136335.514,8175
2643606,1651136335.516,8174
2643607,1651136335.518,8174
2643608,1651136335.52,8175
2643609,1651136335.522,8176
2643610,1651136335.524,8176
2643611,1651136335.526,8177
2643612,1651136335.528,8178
2643613,1651136335.53,8178
2643614,1651136335.532,8178
2643615,1651136335.534,8179
2643616,1651136335.536,8179
2643617,1651136335.538,8179
2643618,1651136335.54,8180
2643619,1651136335.542,8181
2643620,1651136335.544,8183
2643621,1651136335.546,8189
2643622,1651136335.548,8202
2643623,1651136335.55,8227
2643624,1651136335.552,8266
2643625,1651136335.554,8318
2643626,1651136335.556,8378
2643627,1651136335.558,8443
2643628,1651136335.56,8508
2643629,1651136335.562,8557
2643630,1651136335.564,8564
2643631,1651136335.566,8509
2643632,1651136335.568,8393
2643633,1651136335.57,8245
2643634,1651136335.572,8105
2643635,1651136335.574,8000
2643636,1651136335.576,7937
2643637,1651136335.578,7911
2643638,1651136335.58,7917
2643639,1651136335.582,7945
2643640,1651136335.584,7985
2643641,1651136335.586,8027
2643642,1651136335.588,8064
2643643,1651136335.59,8095
2643644,1651136335.592,8120
2643645,1651136335.594,8138
2643646,1651136335.596,8148
2643647,1651136335.598,8152
2643648,1651136335.6,8154
2643649,1651136335.602,8155
2643650,1651136335.604,8155
2643651,1651136335.606,8156
2643652,1651136335.608,8156
2643653,1651136335.61,8157
2643654,1651136335.612,8158
2643655,1651136335.614,8158
2643656,1651136335.616,8158
2643657,1651136335.618,8159
2643658,1651136335.62,8159
2643659,1651136335.622,8160
2643660,1651136335.624,8160
2643661,1651136335.626,8160
2643662,1651136335.628,8159
2643663,1651136335.63,8159
2643664,1651136335.632,8159
2643665,1651136335.634,8159
2643666,1651136335.636,8158
2643667,1651136335.638,8158
2643668,1651136335.64,8158
2643669,1651136335.642,8158
2643670,1651136335.644,8159
2643671,1651136335.646,8159
2643672,1651136335.648,8158
2643673,1651136335.65,8159
2643674,1651136335.652,8159
2643675,1651136335.654,8159
2643676,1651136335.656,8159
2643677,1651136335.658,8159
2643678,1651136335.66,8159
2643679,1651136335.662,8160
2643680,1651136335.664,8161
2643681,1651136335.666,8161
2643682,1651136335.668,8162
2643683,1651136335.67,8163
2643684,1651136335.672,8164
2643685,1651136335.674,8166
2643686,1651136335.676,8168
2643687,1651136335.678,8170
2643688,1651136335.68,8172
2643689,1651136335.682,8175
2643690,1651136335.684,8177
2643691,1651136335.686,8180
2643692,1651136335.688,8183
2643693,1651136335.69,8187
2643694,1651136335.692,8190
2643695,1651136335.694,8193
2643696,1651136335.696,8196
2643697,1651136335.698,8198
2643698,1651136335.7,8201
2643699,1651136335.702,8203
2643700,1651136335.704,8205
2643701,1651136335.706,8207
2643702,1651136335.708,8208
2643703,1651136335.71,8210
2643704,1651136335.712,8211
2643705,1651136335.714,8212
2643706,1651136335.716,8213
2643707,1651136335.718,8214
2643708,1651136335.72,8215
2643709,1651136335.722,8216
2643710,1651136335.724,8218
2643711,1651136335.726,8220
2643712,1651136335.728,8223
2643713,1651136335.73,8225
2643714,1651136335.732,8226
2643715,1651136335.734,8228
2643716,1651136335.736,8231
2643717,1651136335.738,8233
2643718,1651136335.74,8234
2643719,1651136335.742,8235
2643720,1651136335.744,8236
2643721,1651136335.746,8236
2643722,1651136335.748,8236
2643723,1651136335.75,8238
2643724,1651136335.752,8242
2643725,1651136335.754,8245
2643726,1651136335.756,8247
2643727,1651136335.758,8247
2643728,1651136335.76,8244
2643729,1651136335.762,8241
2643730,1651136335.764,8238
2643731,1651136335.766,8237
2643732,1651136335.768,8238
2643733,1651136335.77,8241
2643734,1651136335.772,8242
2643735,1651136335.774,8243
2643736,1651136335.776,8243
2643737,1651136335.778,8242
2643738,1651136335.78,8239
2643739,1651136335.782,8236
2643740,1651136335.784,8234
2643741,1651136335.786,8232
2643742,1651136335.788,8230
2643743,1651136335.79,8228
2643744,1651136335.792,8225
2643745,1651136335.794,8223
2643746,1651136335.796,8220
2643747,1651136335.798,8216
2643748,1651136335.8,8211
2643749,1651136335.802,8207
2643750,1651136335.804,8204
2643751,1651136335.806,8202
2643752,1651136335.808,8200
2643753,1651136335.81,8198
2643754,1651136335.812,8195
2643755,1651136335.814,8192
2643756,1651136335.816,8190
2643757,1651136335.818,8188
2643758,1651136335.82,8187
2643759,1651136335.822,8186
2643760,1651136335.824,8186
2643761,1651136335.826,8185
2643762,1651136335.828,8185
2643763,1651136335.83,8184
2643764,1651136335.832,8183
2643765,1651136335.834,8183
2643766,1651136335.836,8182
2643767,1651136335.838,8181
2643768,1651136335.84,8181
2643769,1651136335.842,8180
2643770,1651136335.844,8179
2643771,1651136335.846,8179
2643772,1651136335.848,8178
2643773,1651136335.85,8178
2643774,1651136335.852,8177
2643775,1651136335.854,8177
2643776,1651136335.856,8176
2643777,1651136335.858,8176
2643778,1651136335.86,8175
2643779,1651136335.862,8175
2643780,1651136335.864,8174
2643781,1651136335.866,8174
2643782,1651136335.868,8173
2643783,1651136335.87,8173
2643784,1651136335.872,8173
2643785,1651136335.874,8173
2643786,1651136335.876,8173
2643787,1651136335.878,8172
2643788,1651136335.88,8173
2643789,1651136335.882,8173
2643790,1651136335.884,8173
2643791,1651136335.886,8173
2643792,1651136335.888,8173
2643793,1651136335.89,8174
2643794,1651136335.892,8174
2643795,1651136335.894,8174
2643796,1651136335.896,8175
2643797,1651136335.898,8176
2643798,1651136335.9,8177
2643799,1651136335.902,8177
2643800,1651136335.904,8177
2643801,1651136335.906,8177
2643802,1651136335.908,8178
2643803,1651136335.91,8181
2643804,1651136335.912,8188
2643805,1651136335.914,8204
2643806,1651136335.916,8230
2643807,1651136335.918,8272
2643808,1651136335.92,8325
2643809,1651136335.922,8386
2643810,1651136335.924,8451
2643811,1651136335.926,8516
2643812,1651136335.928,8560
2643813,1651136335.93,8552
2643814,1651136335.932,8473
2643815,1651136335.934,8338
2643816,1651136335.936,8190
2643817,1651136335.938,8064
2643818,1651136335.94,7975
2643819,1651136335.942,7924
2643820,1651136335.944,7907
2643821,1651136335.946,7918
2643822,1651136335.948,7949
2643823,1651136335.95,7989
2643824,1651136335.952,8031
2643825,1651136335.954,8068
2643826,1651136335.956,8100
2643827,1651136335.958,8122
2643828,1651136335.96,8136
2643829,1651136335.962,8143
2643830,1651136335.964,8147
2643831,1651136335.966,8148
2643832,1651136335.968,8149
2643833,1651136335.97,8150
2643834,1651136335.972,8150
2643835,1651136335.974,8151
2643836,1651136335.976,8152
2643837,1651136335.978,8152
2643838,1651136335.98,8153
2643839,1651136335.982,8153
2643840,1651136335.984,8154
2643841,1651136335.986,8154
2643842,1651136335.988,8155
2643843,1651136335.99,8155
2643844,1651136335.992,8155
2643845,1651136335.994,8155
2643846,1651136335.996,8155
2643847,1651136335.998,8155
2643848,1651136336.0,8155
2643849,1651136336.002,8155
2643850,1651136336.004,8155
2643851,1651136336.006,8155
2643852,1651136336.008,8156
2643853,1651136336.01,8156
2643854,1651136336.012,8155
2643855,1651136336.014,8155
2643856,1651136336.016,8155
2643857,1651136336.018,8155
2643858,1651136336.02,8155
2643859,1651136336.022,8155
2643860,1651136336.024,8156
2643861,1651136336.026,8157
2643862,1651136336.028,8157
2643863,1651136336.03,8157
2643864,1651136336.032,8158
2643865,1651136336.034,8158
2643866,1651136336.036,8160
2643867,1651136336.038,8161
2643868,1651136336.04,8163
2643869,1651136336.042,8166
2643870,1651136336.044,8169
2643871,1651136336.046,8171
2643872,1651136336.048,8173
2643873,1651136336.05,8175
2643874,1651136336.052,8179
2643875,1651136336.054,8182
2643876,1651136336.056,8185
2643877,1651136336.058,8189
2643878,1651136336.06,8192
2643879,1651136336.062,8194
2643880,1651136336.064,8197
2643881,1651136336.066,8199
2643882,1651136336.068,8202
2643883,1651136336.07,8204
2643884,1651136336.072,8206
2643885,1651136336.074,8208
2643886,1651136336.076,8210
2643887,1651136336.078,8211
2643888,1651136336.08,8212
2643889,1651136336.082,8213
2643890,1651136336.084,8214
2643891,1651136336.086,8216
2643892,1651136336.088,8217
2643893,1651136336.09,8219
2643894,1651136336.092,8221
2643895,1651136336.094,8223
2643896,1651136336.096,8224
2643897,1651136336.098,8227
2643898,1651136336.1,8229
2643899,1651136336.102,8231
2643900,1651136336.104,8233
2643901,1651136336.106,8235
2643902,1651136336.108,8236
2643903,1651136336.11,8236
2643904,1651136336.112,8236
2643905,1651136336.114,8237
2643906,1651136336.116,8238
2643907,1651136336.118,8241
2643908,1651136336.12,8244
2643909,1651136336.122,8246
2643910,1651136336.124,8245
2643911,1651136336.126,8243
2643912,1651136336.128,8239
2643913,1651136336.13,8237
2643914,1651136336.132,8237
2643915,1651136336.134,8239
2643916,1651136336.136,8242
2643917,1651136336.138,8243
2643918,1651136336.14,8244
2643919,1651136336.142,8243
2643920,1651136336.144,8240
2643921,1651136336.146,8237
2643922,1651136336.148,8235
2643923,1651136336.15,8232
2643924,1651136336.152,8229
2643925,1651136336.154,8227
2643926,1651136336.156,8225
2643927,1651136336.158,8223
2643928,1651136336.16,8220
2643929,1651136336.162,8217
2643930,1651136336.164,8212
2643931,1651136336.166,8208
2643932,1651136336.168,8204
2643933,1651136336.17,8200
2643934,1651136336.172,8198
2643935,1651136336.174,8196
2643936,1651136336.176,8193
2643937,1651136336.178,8191
2643938,1651136336.18,8188
2643939,1651136336.182,8186
2643940,1651136336.184,8184
2643941,1651136336.186,8182
2643942,1651136336.188,8181
2643943,1651136336.19,8180
2643944,1651136336.192,8180
2643945,1651136336.194,8179
2643946,1651136336.196,8178
2643947,1651136336.198,8177
2643948,1651136336.2,8177
2643949,1651136336.202,8176
2643950,1651136336.204,8176
2643951,1651136336.206,8176
2643952,1651136336.208,8175
2643953,1651136336.21,8175
2643954,1651136336.212,8174
2643955,1651136336.214,8173
2643956,1651136336.216,8173
2643957,1651136336.218,8172
2643958,1651136336.22,8172
2643959,1651136336.222,8172
2643960,1651136336.224,8172
2643961,1651136336.226,8171
2643962,1651136336.228,8170
2643963,1651136336.23,8169
2643964,1651136336.232,8169
2643965,1651136336.234,8169
2643966,1651136336.236,8169
2643967,1651136336.238,8169
2643968,1651136336.24,8169
2643969,1651136336.242,8169
2643970,1651136336.244,8170
2643971,1651136336.246,8170
2643972,1651136336.248,8171
2643973,1651136336.25,8171
2643974,1651136336.252,8171
2643975,1651136336.254,8172
2643976,1651136336.256,8172
2643977,1651136336.258,8172
2643978,1651136336.26,8173
2643979,1651136336.262,8173
2643980,1651136336.264,8174
2643981,1651136336.266,8174
2643982,1651136336.268,8174
2643983,1651136336.27,8174
2643984,1651136336.272,8174
2643985,1651136336.274,8175
2643986,1651136336.276,8179
2643987,1651136336.278,8188
2643988,1651136336.28,8208
2643989,1651136336.282,8239
2643990,1651136336.284,8282
2643991,1651136336.286,8335
2643992,1651136336.288,8395
2643993,1651136336.29,8461
2643994,1651136336.292,8525
2643995,1651136336.294,8567
2643996,1651136336.296,8554
2643997,1651136336.298,8467
2643998,1651136336.3,8326
2643999,1651136336.302,8170
2644000,1651136336.304,8040
2644001,1651136336.306,7954
2644002,1651136336.308,7911
2644003,1651136336.31,7902
2644004,1651136336.312,7919
2644005,1651136336.314,7953
2644006,1651136336.316,7995
2644007,1651136336.318,8035
2644008,1651136336.32,8072
2644009,1651136336.322,8102
2644010,1651136336.324,8124
2644011,1651136336.326,8137
2644012,1651136336.328,8144
2644013,1651136336.33,8146
2644014,1651136336.332,8147
2644015,1651136336.334,8147
2644016,1651136336.336,8148
2644017,1651136336.338,8149
2644018,1651136336.34,8150
2644019,1651136336.342,8152
2644020,1651136336.344,8152
2644021,1651136336.346,8152
2644022,1651136336.348,8153
2644023,1651136336.35,8154
2644024,1651136336.352,8154
2644025,1651136336.354,8154
2644026,1651136336.356,8154
2644027,1651136336.358,8154
2644028,1651136336.36,8154
2644029,1651136336.362,8154
2644030,1651136336.364,8154
2644031,1651136336.366,8155
2644032,1651136336.368,8155
2644033,1651136336.37,8155
2644034,1651136336.372,8156
2644035,1651136336.374,8156
2644036,1651136336.376,8156
2644037,1651136336.378,8156
2644038,1651136336.38,8156
2644039,1651136336.382,8156
2644040,1651136336.384,8156
2644041,1651136336.386,8156
2644042,1651136336.388,8156
2644043,1651136336.39,8157
2644044,1651136336.392,8157
2644045,1651136336.394,8157
2644046,1651136336.396,8158
2644047,1651136336.398,8159
2644048,1651136336.4,8160
2644049,1651136336.402,8162
2644050,1651136336.404,8164
2644051,1651136336.406,8166
2644052,1651136336.408,8168
2644053,1651136336.41,8171
2644054,1651136336.412,8173
2644055,1651136336.414,8175
2644056,1651136336.416,8178
2644057,1651136336.418,8181
2644058,1651136336.42,8184
2644059,1651136336.422,8187
2644060,1651136336.424,8190
2644061,1651136336.426,8193
2644062,1651136336.428,8196
2644063,1651136336.43,8199
2644064,1651136336.432,8201
2644065,1651136336.434,8204
2644066,1651136336.436,8206
2644067,1651136336.438,8208
2644068,1651136336.44,8210
2644069,1651136336.442,8211
2644070,1651136336.444,8212
2644071,1651136336.446,8213
2644072,1651136336.448,8214
2644073,1651136336.45,8215
2644074,1651136336.452,8216
2644075,1651136336.454,8218
2644076,1651136336.456,8220
2644077,1651136336.458,8221
2644078,1651136336.46,8223
2644079,1651136336.462,8225
2644080,1651136336.464,8227
2644081,1651136336.466,8230
2644082,1651136336.468,8232
2644083,1651136336.47,8234
2644084,1651136336.472,8236
2644085,1651136336.474,8237
2644086,1651136336.476,8237
2644087,1651136336.478,8236
2644088,1651136336.48,8236
2644089,1651136336.482,8238
2644090,1651136336.484,8240
2644091,1651136336.486,8243
2644092,1651136336.488,8246
2644093,1651136336.49,8246
2644094,1651136336.492,8243
2644095,1651136336.494,8240
2644096,1651136336.496,8237
2644097,1651136336.498,8238
2644098,1651136336.5,8240
2644099,1651136336.502,8242
2644100,1651136336.504,8244
2644101,1651136336.506,8244
2644102,1651136336.508,8243
2644103,1651136336.51,8241
2644104,1651136336.512,8238
2644105,1651136336.514,8235
2644106,1651136336.516,8232
2644107,1651136336.518,8230
2644108,1651136336.52,8228
2644109,1651136336.522,8226
2644110,1651136336.524,8223
2644111,1651136336.526,8220
2644112,1651136336.528,8217
2644113,1651136336.53,8214
2644114,1651136336.532,8209
2644115,1651136336.534,8206
2644116,1651136336.536,8203
2644117,1651136336.538,8201
2644118,1651136336.54,8198
2644119,1651136336.542,8196
2644120,1651136336.544,8193
2644121,1651136336.546,8190
2644122,1651136336.548,8187
2644123,1651136336.55,8185
2644124,1651136336.552,8185
2644125,1651136336.554,8184
2644126,1651136336.556,8184
2644127,1651136336.558,8183
2644128,1651136336.56,8183
2644129,1651136336.562,8182
2644130,1651136336.564,8181
2644131,1651136336.566,8181
2644132,1651136336.568,8180
2644133,1651136336.57,8180
2644134,1651136336.572,8180
2644135,1651136336.574,8179
2644136,1651136336.576,8179
2644137,1651136336.578,8178
2644138,1651136336.58,8177
2644139,1651136336.582,8177
2644140,1651136336.584,8176
2644141,1651136336.586,8176
2644142,1651136336.588,8176
2644143,1651136336.59,8176
2644144,1651136336.592,8176
2644145,1651136336.594,8175
2644146,1651136336.596,8175
2644147,1651136336.598,8175
2644148,1651136336.6,8174
2644149,1651136336.602,8174
2644150,1651136336.604,8174
2644151,1651136336.606,8175
2644152,1651136336.608,8175
2644153,1651136336.61,8175
2644154,1651136336.612,8175
2644155,1651136336.614,8175
2644156,1651136336.616,8176
2644157,1651136336.618,8177
2644158,1651136336.62,8178
2644159,1651136336.622,8178
2644160,1651136336.624,8179
2644161,1651136336.626,8179
2644162,1651136336.628,8179
2644163,1651136336.63,8180
2644164,1651136336.632,8180
2644165,1651136336.634,8180
2644166,1651136336.636,8181
2644167,1651136336.638,8181
2644168,1651136336.64,8182
2644169,1651136336.642,8186
2644170,1651136336.644,8196
2644171,1651136336.646,8215
2644172,1651136336.648,8247
2644173,1651136336.65,8294
2644174,1651136336.652,8349
2644175,1651136336.654,8406
2644176,1651136336.656,8467
2644177,1651136336.658,8528
2644178,1651136336.66,8567
2644179,1651136336.662,8554
2644180,1651136336.664,8468
2644181,1651136336.666,8328
2644182,1651136336.668,8174
2644183,1651136336.67,8045
2644184,1651136336.672,7959
2644185,1651136336.674,7916
2644186,1651136336.676,7906
2644187,1651136336.678,7922
2644188,1651136336.68,7956
2644189,1651136336.682,7997
2644190,1651136336.684,8038
2644191,1651136336.686,8076
2644192,1651136336.688,8106
2644193,1651136336.69,8129
2644194,1651136336.692,8142
2644195,1651136336.694,8149
2644196,1651136336.696,8151
2644197,1651136336.698,8152
2644198,1651136336.7,8152
2644199,1651136336.702,8153
2644200,1651136336.704,8153
2644201,1651136336.706,8154
2644202,1651136336.708,8155
2644203,1651136336.71,8156
2644204,1651136336.712,8157
2644205,1651136336.714,8157
2644206,1651136336.716,8157
2644207,1651136336.718,8158
2644208,1651136336.72,8158
2644209,1651136336.722,8158
2644210,1651136336.724,8158
2644211,1651136336.726,8158
2644212,1651136336.728,8158
2644213,1651136336.73,8158
2644214,1651136336.732,8158
2644215,1651136336.734,8158
2644216,1651136336.736,8157
2644217,1651136336.738,8157
2644218,1651136336.74,8158
2644219,1651136336.742,8158
2644220,1651136336.744,8158
2644221,1651136336.746,8158
2644222,1651136336.748,8158
2644223,1651136336.75,8158
2644224,1651136336.752,8158
2644225,1651136336.754,8159
2644226,1651136336.756,8159
2644227,1651136336.758,8159
2644228,1651136336.76,8160
2644229,1651136336.762,8161
2644230,1651136336.764,8162
2644231,1651136336.766,8163
2644232,1651136336.768,8164
2644233,1651136336.77,8166
2644234,1651136336.772,8168
2644235,1651136336.774,8170
2644236,1651136336.776,8172
2644237,1651136336.778,8175
2644238,1651136336.78,8178
2644239,1651136336.782,8180
2644240,1651136336.784,8183
2644241,1651136336.786,8186
2644242,1651136336.788,8189
2644243,1651136336.79,8192
2644244,1651136336.792,8196
2644245,1651136336.794,8199
2644246,1651136336.796,8202
2644247,1651136336.798,8205
2644248,1651136336.8,8207
2644249,1651136336.802,8210
2644250,1651136336.804,8211
2644251,1651136336.806,8213
2644252,1651136336.808,8215
2644253,1651136336.81,8216
2644254,1651136336.812,8217
2644255,1651136336.814,8218
2644256,1651136336.816,8219
2644257,1651136336.818,8220
2644258,1651136336.82,8222
2644259,1651136336.822,8224
2644260,1651136336.824,8226
2644261,1651136336.826,8228
2644262,1651136336.828,8230
2644263,1651136336.83,8232
2644264,1651136336.832,8234
2644265,1651136336.834,8236
2644266,1651136336.836,8238
2644267,1651136336.838,8240
2644268,1651136336.84,8241
2644269,1651136336.842,8241
2644270,1651136336.844,8241
2644271,1651136336.846,8241
2644272,1651136336.848,8242
2644273,1651136336.85,8245
2644274,1651136336.852,8248
2644275,1651136336.854,8250
2644276,1651136336.856,8250
2644277,1651136336.858,8247
2644278,1651136336.86,8243
2644279,1651136336.862,8241
2644280,1651136336.864,8241
2644281,1651136336.866,8243
2644282,1651136336.868,8245
2644283,1651136336.87,8246
2644284,1651136336.872,8247
2644285,1651136336.874,8246
2644286,1651136336.876,8244
2644287,1651136336.878,8242
2644288,1651136336.88,8239
2644289,1651136336.882,8236
2644290,1651136336.884,8234
2644291,1651136336.886,8232
2644292,1651136336.888,8230
2644293,1651136336.89,8227
2644294,1651136336.892,8224
2644295,1651136336.894,8221
2644296,1651136336.896,8218
2644297,1651136336.898,8213
2644298,1651136336.9,8208
2644299,1651136336.902,8205
2644300,1651136336.904,8202
2644301,1651136336.906,8200
2644302,1651136336.908,8198
2644303,1651136336.91,8195
2644304,1651136336.912,8193
2644305,1651136336.914,8191
2644306,1651136336.916,8189
2644307,1651136336.918,8188
2644308,1651136336.92,8188
2644309,1651136336.922,8187
2644310,1651136336.924,8187
2644311,1651136336.926,8186
2644312,1651136336.928,8185
2644313,1651136336.93,8184
2644314,1651136336.932,8184
2644315,1651136336.934,8183
2644316,1651136336.936,8183
2644317,1651136336.938,8182
2644318,1651136336.94,8181
