,times,values
1760000,1593583120.232,8186
1760001,1593583120.234,8186
1760002,1593583120.236,8186
1760003,1593583120.238,8186
1760004,1593583120.24,8186
1760005,1593583120.242,8187
1760006,1593583120.244,8187
1760007,1593583120.246,8187
1760008,1593583120.248,8187
1760009,1593583120.25,8187
1760010,1593583120.252,8186
1760011,1593583120.254,8186
1760012,1593583120.256,8186
1760013,1593583120.258,8186
1760014,1593583120.26,8187
1760015,1593583120.262,8187
1760016,1593583120.264,8187
1760017,1593583120.266,8187
1760018,1593583120.268,8187
1760019,1593583120.27,8188
1760020,1593583120.272,8188
1760021,1593583120.274,8187
1760022,1593583120.276,8188
1760023,1593583120.278,8188
1760024,1593583120.28,8188
1760025,1593583120.282,8188
1760026,1593583120.284,8187
1760027,1593583120.286,8187
1760028,1593583120.288,8187
1760029,1593583120.29,8187
1760030,1593583120.292,8187
1760031,1593583120.294,8187
1760032,1593583120.296,8187
1760033,1593583120.298,8187
1760034,1593583120.3,8187
1760035,1593583120.302,8187
1760036,1593583120.304,8187
1760037,1593583120.306,8187
1760038,1593583120.308,8187
1760039,1593583120.31,8188
1760040,1593583120.312,8188
1760041,1593583120.314,8188
1760042,1593583120.316,8188
1760043,1593583120.318,8188
1760044,1593583120.32,8188
1760045,1593583120.322,8188
1760046,1593583120.324,8188
1760047,1593583120.326,8188
1760048,1593583120.328,8189
1760049,1593583120.33,8189
1760050,1593583120.332,8189
1760051,1593583120.334,8189
1760052,1593583120.336,8189
1760053,1593583120.338,8189
1760054,1593583120.34,8189
1760055,1593583120.342,8189
1760056,1593583120.344,8190
1760057,1593583120.346,8190
1760058,1593583120.348,8189
1760059,1593583120.35,8189
1760060,1593583120.352,8189
1760061,1593583120.354,8188
1760062,1593583120.356,8188
1760063,1593583120.358,8189
1760064,1593583120.36,8189
1760065,1593583120.362,8189
1760066,1593583120.364,8188
1760067,1593583120.366,8188
1760068,1593583120.368,8188
1760069,1593583120.37,8188
1760070,1593583120.372,8188
1760071,1593583120.374,8187
1760072,1593583120.376,8187
1760073,1593583120.378,8187
1760074,1593583120.38,8187
1760075,1593583120.382,8187
1760076,1593583120.384,8187
1760077,1593583120.386,8187
1760078,1593583120.388,8187
1760079,1593583120.39,8187
1760080,1593583120.392,8187
1760081,1593583120.394,8187
1760082,1593583120.396,8187
1760083,1593583120.398,8187
1760084,1593583120.4,8187
1760085,1593583120.402,8186
1760086,1593583120.404,8186
1760087,1593583120.406,8186
1760088,1593583120.408,8187
1760089,1593583120.41,8187
1760090,1593583120.412,8187
1760091,1593583120.414,8186
1760092,1593583120.416,8186
1760093,1593583120.418,8186
1760094,1593583120.42,8186
1760095,1593583120.422,8187
1760096,1593583120.424,8187
1760097,1593583120.426,8187
1760098,1593583120.428,8187
1760099,1593583120.43,8187
1760100,1593583120.432,8187
1760101,1593583120.434,8187
1760102,1593583120.436,8187
1760103,1593583120.438,8187
1760104,1593583120.44,8187
1760105,1593583120.442,8187
1760106,1593583120.444,8187
1760107,1593583120.446,8187
1760108,1593583120.448,8187
1760109,1593583120.45,8186
1760110,1593583120.452,8186
1760111,1593583120.454,8186
1760112,1593583120.456,8186
1760113,1593583120.458,8186
1760114,1593583120.46,8186
1760115,1593583120.462,8186
1760116,1593583120.464,8186
1760117,1593583120.466,8187
1760118,1593583120.468,8187
1760119,1593583120.47,8187
1760120,1593583120.472,8187
1760121,1593583120.474,8187
1760122,1593583120.476,8187
1760123,1593583120.478,8187
1760124,1593583120.48,8187
1760125,1593583120.482,8187
1760126,1593583120.484,8187
1760127,1593583120.486,8187
1760128,1593583120.488,8186
1760129,1593583120.49,8186
1760130,1593583120.492,8187
1760131,1593583120.494,8187
1760132,1593583120.496,8187
1760133,1593583120.498,8186
1760134,1593583120.5,8187
1760135,1593583120.502,8187
1760136,1593583120.504,8187
1760137,1593583120.506,8187
1760138,1593583120.508,8187
1760139,1593583120.51,8187
1760140,1593583120.512,8187
1760141,1593583120.514,8187
1760142,1593583120.516,8187
1760143,1593583120.518,8187
1760144,1593583120.52,8187
1760145,1593583120.522,8187
1760146,1593583120.524,8187
1760147,1593583120.526,8187
1760148,1593583120.528,8187
1760149,1593583120.53,8187
1760150,1593583120.532,8187
1760151,1593583120.534,8187
1760152,1593583120.536,8187
1760153,1593583120.538,8187
1760154,1593583120.54,8187
1760155,1593583120.542,8187
1760156,1593583120.544,8187
1760157,1593583120.546,8187
1760158,1593583120.548,8187
1760159,1593583120.55,8186
1760160,1593583120.552,8186
1760161,1593583120.554,8187
1760162,1593583120.556,8187
1760163,1593583120.558,8188
1760164,1593583120.56,8188
1760165,1593583120.562,8188
1760166,1593583120.564,8188
1760167,1593583120.566,8188
1760168,1593583120.568,8187
1760169,1593583120.57,8187
1760170,1593583120.572,8187
1760171,1593583120.574,8186
1760172,1593583120.576,8186
1760173,1593583120.578,8186
1760174,1593583120.58,8186
1760175,1593583120.582,8186
1760176,1593583120.584,8186
1760177,1593583120.586,8186
1760178,1593583120.588,8186
1760179,1593583120.59,8186
1760180,1593583120.592,8187
1760181,1593583120.594,8187
1760182,1593583120.596,8187
1760183,1593583120.598,8187
1760184,1593583120.6,8187
1760185,1593583120.602,8187
1760186,1593583120.604,8187
1760187,1593583120.606,8187
1760188,1593583120.608,8187
1760189,1593583120.61,8187
1760190,1593583120.612,8186
1760191,1593583120.614,8186
1760192,1593583120.616,8186
1760193,1593583120.618,8187
1760194,1593583120.62,8187
1760195,1593583120.622,8188
1760196,1593583120.624,8188
1760197,1593583120.626,8188
1760198,1593583120.628,8189
1760199,1593583120.63,8188
1760200,1593583120.632,8188
1760201,1593583120.634,8188
1760202,1593583120.636,8188
1760203,1593583120.638,8188
1760204,1593583120.64,8187
1760205,1593583120.642,8187
1760206,1593583120.644,8187
1760207,1593583120.646,8187
1760208,1593583120.648,8187
1760209,1593583120.65,8187
1760210,1593583120.652,8187
1760211,1593583120.654,8187
1760212,1593583120.656,8187
1760213,1593583120.658,8187
1760214,1593583120.66,8187
1760215,1593583120.662,8187
1760216,1593583120.664,8187
1760217,1593583120.666,8187
1760218,1593583120.668,8187
1760219,1593583120.67,8187
1760220,1593583120.672,8187
1760221,1593583120.674,8187
1760222,1593583120.676,8188
1760223,1593583120.678,8188
1760224,1593583120.68,8188
1760225,1593583120.682,8187
1760226,1593583120.684,8187
1760227,1593583120.686,8187
1760228,1593583120.688,8187
1760229,1593583120.69,8187
1760230,1593583120.692,8187
1760231,1593583120.694,8187
1760232,1593583120.696,8187
1760233,1593583120.698,8188
1760234,1593583120.7,8188
1760235,1593583120.702,8187
1760236,1593583120.704,8187
1760237,1593583120.706,8187
1760238,1593583120.708,8187
1760239,1593583120.71,8188
1760240,1593583120.712,8188
1760241,1593583120.714,8187
1760242,1593583120.716,8187
1760243,1593583120.718,8187
1760244,1593583120.72,8187
1760245,1593583120.722,8187
1760246,1593583120.724,8187
1760247,1593583120.726,8187
1760248,1593583120.728,8187
1760249,1593583120.73,8187
1760250,1593583120.732,8187
1760251,1593583120.734,8187
1760252,1593583120.736,8187
1760253,1593583120.738,8187
1760254,1593583120.74,8186
1760255,1593583120.742,8186
1760256,1593583120.744,8186
1760257,1593583120.746,8186
1760258,1593583120.748,8186
1760259,1593583120.75,8186
1760260,1593583120.752,8187
1760261,1593583120.754,8187
1760262,1593583120.756,8187
1760263,1593583120.758,8187
1760264,1593583120.76,8187
1760265,1593583120.762,8187
1760266,1593583120.764,8187
1760267,1593583120.766,8187
1760268,1593583120.768,8187
1760269,1593583120.77,8187
1760270,1593583120.772,8187
1760271,1593583120.774,8187
1760272,1593583120.776,8187
1760273,1593583120.778,8187
1760274,1593583120.78,8187
1760275,1593583120.782,8188
1760276,1593583120.784,8188
1760277,1593583120.786,8189
1760278,1593583120.788,8190
1760279,1593583120.79,8191
1760280,1593583120.792,8192
1760281,1593583120.794,8194
1760282,1593583120.796,8195
1760283,1593583120.798,8196
1760284,1593583120.8,8197
1760285,1593583120.802,8197
1760286,1593583120.804,8198
1760287,1593583120.806,8199
1760288,1593583120.808,8201
1760289,1593583120.81,8203
1760290,1593583120.812,8205
1760291,1593583120.814,8208
1760292,1593583120.816,8210
1760293,1593583120.818,8212
1760294,1593583120.82,8214
1760295,1593583120.822,8216
1760296,1593583120.824,8218
1760297,1593583120.826,8219
1760298,1593583120.828,8221
1760299,1593583120.83,8222
1760300,1593583120.832,8222
1760301,1593583120.834,8222
1760302,1593583120.836,8222
1760303,1593583120.838,8221
1760304,1593583120.84,8221
1760305,1593583120.842,8220
1760306,1593583120.844,8220
1760307,1593583120.846,8219
1760308,1593583120.848,8218
1760309,1593583120.85,8217
1760310,1593583120.852,8216
1760311,1593583120.854,8215
1760312,1593583120.856,8215
1760313,1593583120.858,8215
1760314,1593583120.86,8214
1760315,1593583120.862,8214
1760316,1593583120.864,8213
1760317,1593583120.866,8213
1760318,1593583120.868,8212
1760319,1593583120.87,8211
1760320,1593583120.872,8210
1760321,1593583120.874,8208
1760322,1593583120.876,8206
1760323,1593583120.878,8203
1760324,1593583120.88,8200
1760325,1593583120.882,8197
1760326,1593583120.884,8195
1760327,1593583120.886,8193
1760328,1593583120.888,8190
1760329,1593583120.89,8187
1760330,1593583120.892,8185
1760331,1593583120.894,8183
1760332,1593583120.896,8181
1760333,1593583120.898,8180
1760334,1593583120.9,8180
1760335,1593583120.902,8180
1760336,1593583120.904,8180
1760337,1593583120.906,8180
1760338,1593583120.908,8180
1760339,1593583120.91,8179
1760340,1593583120.912,8178
1760341,1593583120.914,8178
1760342,1593583120.916,8177
1760343,1593583120.918,8177
1760344,1593583120.92,8177
1760345,1593583120.922,8176
1760346,1593583120.924,8176
1760347,1593583120.926,8175
1760348,1593583120.928,8175
1760349,1593583120.93,8175
1760350,1593583120.932,8175
1760351,1593583120.934,8176
1760352,1593583120.936,8176
1760353,1593583120.938,8176
1760354,1593583120.94,8176
1760355,1593583120.942,8176
1760356,1593583120.944,8176
1760357,1593583120.946,8176
1760358,1593583120.948,8176
1760359,1593583120.95,8176
1760360,1593583120.952,8177
1760361,1593583120.954,8176
1760362,1593583120.956,8176
1760363,1593583120.958,8176
1760364,1593583120.96,8176
1760365,1593583120.962,8176
1760366,1593583120.964,8176
1760367,1593583120.966,8177
1760368,1593583120.968,8177
1760369,1593583120.97,8177
1760370,1593583120.972,8178
1760371,1593583120.974,8178
1760372,1593583120.976,8178
1760373,1593583120.978,8178
1760374,1593583120.98,8178
1760375,1593583120.982,8178
1760376,1593583120.984,8177
1760377,1593583120.986,8177
1760378,1593583120.988,8177
1760379,1593583120.99,8178
1760380,1593583120.992,8178
1760381,1593583120.994,8179
1760382,1593583120.996,8178
1760383,1593583120.998,8178
1760384,1593583121.0,8178
1760385,1593583121.002,8178
1760386,1593583121.004,8178
1760387,1593583121.006,8178
1760388,1593583121.008,8178
1760389,1593583121.01,8179
1760390,1593583121.012,8179
1760391,1593583121.014,8179
1760392,1593583121.016,8179
1760393,1593583121.018,8179
1760394,1593583121.02,8179
1760395,1593583121.022,8180
1760396,1593583121.024,8180
1760397,1593583121.026,8180
1760398,1593583121.028,8180
1760399,1593583121.03,8180
1760400,1593583121.032,8180
1760401,1593583121.034,8180
1760402,1593583121.036,8180
1760403,1593583121.038,8180
1760404,1593583121.04,8180
1760405,1593583121.042,8180
1760406,1593583121.044,8180
1760407,1593583121.046,8180
1760408,1593583121.048,8180
1760409,1593583121.05,8180
1760410,1593583121.052,8181
1760411,1593583121.054,8181
1760412,1593583121.056,8182
1760413,1593583121.058,8183
1760414,1593583121.06,8183
1760415,1593583121.062,8184
1760416,1593583121.064,8184
1760417,1593583121.066,8184
1760418,1593583121.068,8184
1760419,1593583121.07,8185
1760420,1593583121.072,8185
1760421,1593583121.074,8185
1760422,1593583121.076,8186
1760423,1593583121.078,8186
1760424,1593583121.08,8187
1760425,1593583121.082,8188
1760426,1593583121.084,8190
1760427,1593583121.086,8193
1760428,1593583121.088,8197
1760429,1593583121.09,8202
1760430,1593583121.092,8207
1760431,1593583121.094,8213
1760432,1593583121.096,8219
1760433,1593583121.098,8225
1760434,1593583121.1,8232
1760435,1593583121.102,8239
1760436,1593583121.104,8245
1760437,1593583121.106,8251
1760438,1593583121.108,8258
1760439,1593583121.11,8263
1760440,1593583121.112,8267
1760441,1593583121.114,8267
1760442,1593583121.116,8263
1760443,1593583121.118,8257
1760444,1593583121.12,8248
1760445,1593583121.122,8237
1760446,1593583121.124,8225
1760447,1593583121.126,8210
1760448,1593583121.128,8191
1760449,1593583121.13,8168
1760450,1593583121.132,8143
1760451,1593583121.134,8120
1760452,1593583121.136,8101
1760453,1593583121.138,8087
1760454,1593583121.14,8078
1760455,1593583121.142,8073
1760456,1593583121.144,8071
1760457,1593583121.146,8071
1760458,1593583121.148,8073
1760459,1593583121.15,8076
1760460,1593583121.152,8080
1760461,1593583121.154,8081
1760462,1593583121.156,8081
1760463,1593583121.158,8078
1760464,1593583121.16,8073
1760465,1593583121.162,8064
1760466,1593583121.164,8054
1760467,1593583121.166,8044
1760468,1593583121.168,8034
1760469,1593583121.17,8026
1760470,1593583121.172,8019
1760471,1593583121.174,8010
1760472,1593583121.176,7996
1760473,1593583121.178,7976
1760474,1593583121.18,7951
1760475,1593583121.182,7923
1760476,1593583121.184,7897
1760477,1593583121.186,7878
1760478,1593583121.188,7870
1760479,1593583121.19,7875
1760480,1593583121.192,7888
1760481,1593583121.194,7909
1760482,1593583121.196,7934
1760483,1593583121.198,7961
1760484,1593583121.2,7990
1760485,1593583121.202,8019
1760486,1593583121.204,8051
1760487,1593583121.206,8086
1760488,1593583121.208,8121
1760489,1593583121.21,8153
1760490,1593583121.212,8177
1760491,1593583121.214,8192
1760492,1593583121.216,8201
1760493,1593583121.218,8206
1760494,1593583121.22,8209
1760495,1593583121.222,8211
1760496,1593583121.224,8213
1760497,1593583121.226,8215
1760498,1593583121.228,8216
1760499,1593583121.23,8216
1760500,1593583121.232,8217
1760501,1593583121.234,8217
1760502,1593583121.236,8217
1760503,1593583121.238,8217
1760504,1593583121.24,8217
1760505,1593583121.242,8216
1760506,1593583121.244,8217
1760507,1593583121.246,8217
1760508,1593583121.248,8218
1760509,1593583121.25,8218
1760510,1593583121.252,8217
1760511,1593583121.254,8217
1760512,1593583121.256,8216
1760513,1593583121.258,8216
1760514,1593583121.26,8215
1760515,1593583121.262,8215
1760516,1593583121.264,8215
1760517,1593583121.266,8215
1760518,1593583121.268,8215
1760519,1593583121.27,8215
1760520,1593583121.272,8214
1760521,1593583121.274,8214
1760522,1593583121.276,8214
1760523,1593583121.278,8214
1760524,1593583121.28,8214
1760525,1593583121.282,8213
1760526,1593583121.284,8213
1760527,1593583121.286,8213
1760528,1593583121.288,8212
1760529,1593583121.29,8211
1760530,1593583121.292,8211
1760531,1593583121.294,8211
1760532,1593583121.296,8211
1760533,1593583121.298,8211
1760534,1593583121.3,8210
1760535,1593583121.302,8210
1760536,1593583121.304,8210
1760537,1593583121.306,8210
1760538,1593583121.308,8209
1760539,1593583121.31,8209
1760540,1593583121.312,8209
1760541,1593583121.314,8209
1760542,1593583121.316,8209
1760543,1593583121.318,8209
1760544,1593583121.32,8209
1760545,1593583121.322,8208
1760546,1593583121.324,8208
1760547,1593583121.326,8208
1760548,1593583121.328,8208
1760549,1593583121.33,8208
1760550,1593583121.332,8208
1760551,1593583121.334,8208
1760552,1593583121.336,8208
1760553,1593583121.338,8208
1760554,1593583121.34,8209
1760555,1593583121.342,8209
1760556,1593583121.344,8209
1760557,1593583121.346,8209
1760558,1593583121.348,8209
1760559,1593583121.35,8209
1760560,1593583121.352,8209
1760561,1593583121.354,8209
1760562,1593583121.356,8210
1760563,1593583121.358,8210
1760564,1593583121.36,8211
1760565,1593583121.362,8211
1760566,1593583121.364,8211
1760567,1593583121.366,8211
1760568,1593583121.368,8211
1760569,1593583121.37,8211
1760570,1593583121.372,8211
1760571,1593583121.374,8212
1760572,1593583121.376,8213
1760573,1593583121.378,8213
1760574,1593583121.38,8214
1760575,1593583121.382,8214
1760576,1593583121.384,8214
1760577,1593583121.386,8215
1760578,1593583121.388,8216
1760579,1593583121.39,8217
1760580,1593583121.392,8218
1760581,1593583121.394,8219
1760582,1593583121.396,8219
1760583,1593583121.398,8220
1760584,1593583121.4,8221
1760585,1593583121.402,8222
1760586,1593583121.404,8223
1760587,1593583121.406,8224
1760588,1593583121.408,8226
1760589,1593583121.41,8227
1760590,1593583121.412,8228
1760591,1593583121.414,8229
1760592,1593583121.416,8230
1760593,1593583121.418,8231
1760594,1593583121.42,8232
1760595,1593583121.422,8234
1760596,1593583121.424,8235
1760597,1593583121.426,8237
1760598,1593583121.428,8239
1760599,1593583121.43,8240
1760600,1593583121.432,8241
1760601,1593583121.434,8243
1760602,1593583121.436,8244
1760603,1593583121.438,8246
1760604,1593583121.44,8248
1760605,1593583121.442,8249
1760606,1593583121.444,8250
1760607,1593583121.446,8252
1760608,1593583121.448,8253
1760609,1593583121.45,8255
1760610,1593583121.452,8256
1760611,1593583121.454,8258
1760612,1593583121.456,8259
1760613,1593583121.458,8261
1760614,1593583121.46,8262
1760615,1593583121.462,8264
1760616,1593583121.464,8265
1760617,1593583121.466,8267
1760618,1593583121.468,8268
1760619,1593583121.47,8269
1760620,1593583121.472,8270
1760621,1593583121.474,8271
1760622,1593583121.476,8273
1760623,1593583121.478,8274
1760624,1593583121.48,8274
1760625,1593583121.482,8275
1760626,1593583121.484,8275
1760627,1593583121.486,8276
1760628,1593583121.488,8276
1760629,1593583121.49,8276
1760630,1593583121.492,8276
1760631,1593583121.494,8276
1760632,1593583121.496,8276
1760633,1593583121.498,8275
1760634,1593583121.5,8275
1760635,1593583121.502,8273
1760636,1593583121.504,8272
1760637,1593583121.506,8271
1760638,1593583121.508,8270
1760639,1593583121.51,8268
1760640,1593583121.512,8266
1760641,1593583121.514,8265
1760642,1593583121.516,8263
1760643,1593583121.518,8261
1760644,1593583121.52,8260
1760645,1593583121.522,8258
1760646,1593583121.524,8256
1760647,1593583121.526,8254
1760648,1593583121.528,8252
1760649,1593583121.53,8250
1760650,1593583121.532,8248
1760651,1593583121.534,8246
1760652,1593583121.536,8244
1760653,1593583121.538,8243
1760654,1593583121.54,8241
1760655,1593583121.542,8238
1760656,1593583121.544,8236
1760657,1593583121.546,8234
1760658,1593583121.548,8231
1760659,1593583121.55,8228
1760660,1593583121.552,8227
1760661,1593583121.554,8225
1760662,1593583121.556,8223
1760663,1593583121.558,8222
1760664,1593583121.56,8220
1760665,1593583121.562,8218
1760666,1593583121.564,8216
1760667,1593583121.566,8214
1760668,1593583121.568,8213
1760669,1593583121.57,8211
1760670,1593583121.572,8209
1760671,1593583121.574,8208
1760672,1593583121.576,8207
1760673,1593583121.578,8206
1760674,1593583121.58,8204
1760675,1593583121.582,8203
1760676,1593583121.584,8202
1760677,1593583121.586,8200
1760678,1593583121.588,8200
1760679,1593583121.59,8199
1760680,1593583121.592,8198
1760681,1593583121.594,8197
1760682,1593583121.596,8196
1760683,1593583121.598,8195
1760684,1593583121.6,8194
1760685,1593583121.602,8194
1760686,1593583121.604,8193
1760687,1593583121.606,8193
1760688,1593583121.608,8193
1760689,1593583121.61,8193
1760690,1593583121.612,8192
1760691,1593583121.614,8192
1760692,1593583121.616,8191
1760693,1593583121.618,8191
1760694,1593583121.62,8191
1760695,1593583121.622,8191
1760696,1593583121.624,8190
1760697,1593583121.626,8190
1760698,1593583121.628,8190
1760699,1593583121.63,8190
1760700,1593583121.632,8190
1760701,1593583121.634,8190
1760702,1593583121.636,8189
1760703,1593583121.638,8189
1760704,1593583121.64,8189
1760705,1593583121.642,8189
1760706,1593583121.644,8189
1760707,1593583121.646,8189
1760708,1593583121.648,8188
1760709,1593583121.65,8188
1760710,1593583121.652,8188
1760711,1593583121.654,8188
1760712,1593583121.656,8187
1760713,1593583121.658,8187
1760714,1593583121.66,8187
1760715,1593583121.662,8187
1760716,1593583121.664,8187
1760717,1593583121.666,8187
1760718,1593583121.668,8187
1760719,1593583121.67,8187
1760720,1593583121.672,8186
1760721,1593583121.674,8187
1760722,1593583121.676,8187
1760723,1593583121.678,8187
1760724,1593583121.68,8187
1760725,1593583121.682,8187
1760726,1593583121.684,8187
1760727,1593583121.686,8187
1760728,1593583121.688,8187
1760729,1593583121.69,8187
1760730,1593583121.692,8188
1760731,1593583121.694,8188
1760732,1593583121.696,8187
1760733,1593583121.698,8187
1760734,1593583121.7,8187
1760735,1593583121.702,8187
1760736,1593583121.704,8187
1760737,1593583121.706,8187
1760738,1593583121.708,8188
1760739,1593583121.71,8188
1760740,1593583121.712,8188
1760741,1593583121.714,8187
1760742,1593583121.716,8187
1760743,1593583121.718,8187
1760744,1593583121.72,8187
1760745,1593583121.722,8187
1760746,1593583121.724,8187
1760747,1593583121.726,8187
1760748,1593583121.728,8188
1760749,1593583121.73,8188
1760750,1593583121.732,8188
1760751,1593583121.734,8188
1760752,1593583121.736,8188
1760753,1593583121.738,8187
1760754,1593583121.74,8187
1760755,1593583121.742,8187
1760756,1593583121.744,8187
1760757,1593583121.746,8186
1760758,1593583121.748,8186
1760759,1593583121.75,8186
1760760,1593583121.752,8187
1760761,1593583121.754,8187
1760762,1593583121.756,8187
1760763,1593583121.758,8187
1760764,1593583121.76,8187
1760765,1593583121.762,8187
1760766,1593583121.764,8186
1760767,1593583121.766,8186
1760768,1593583121.768,8186
1760769,1593583121.77,8186
1760770,1593583121.772,8186
1760771,1593583121.774,8186
1760772,1593583121.776,8186
1760773,1593583121.778,8186
1760774,1593583121.78,8186
1760775,1593583121.782,8187
1760776,1593583121.784,8187
1760777,1593583121.786,8187
1760778,1593583121.788,8187
1760779,1593583121.79,8187
1760780,1593583121.792,8187
1760781,1593583121.794,8187
1760782,1593583121.796,8187
1760783,1593583121.798,8187
1760784,1593583121.8,8187
1760785,1593583121.802,8187
1760786,1593583121.804,8187
1760787,1593583121.806,8187
1760788,1593583121.808,8187
1760789,1593583121.81,8187
1760790,1593583121.812,8187
1760791,1593583121.814,8187
1760792,1593583121.816,8187
1760793,1593583121.818,8187
1760794,1593583121.82,8187
1760795,1593583121.822,8187
1760796,1593583121.824,8187
1760797,1593583121.826,8187
1760798,1593583121.828,8186
1760799,1593583121.83,8186
1760800,1593583121.832,8185
1760801,1593583121.834,8185
1760802,1593583121.836,8185
1760803,1593583121.838,8185
1760804,1593583121.84,8185
1760805,1593583121.842,8186
1760806,1593583121.844,8186
1760807,1593583121.846,8187
1760808,1593583121.848,8187
1760809,1593583121.85,8187
1760810,1593583121.852,8187
1760811,1593583121.854,8187
1760812,1593583121.856,8187
1760813,1593583121.858,8187
1760814,1593583121.86,8186
1760815,1593583121.862,8186
1760816,1593583121.864,8186
1760817,1593583121.866,8186
1760818,1593583121.868,8186
1760819,1593583121.87,8186
1760820,1593583121.872,8186
1760821,1593583121.874,8186
1760822,1593583121.876,8187
1760823,1593583121.878,8187
1760824,1593583121.88,8186
1760825,1593583121.882,8186
1760826,1593583121.884,8186
1760827,1593583121.886,8186
1760828,1593583121.888,8186
1760829,1593583121.89,8186
1760830,1593583121.892,8186
1760831,1593583121.894,8186
1760832,1593583121.896,8186
1760833,1593583121.898,8186
1760834,1593583121.9,8186
1760835,1593583121.902,8186
1760836,1593583121.904,8186
1760837,1593583121.906,8186
1760838,1593583121.908,8186
1760839,1593583121.91,8187
1760840,1593583121.912,8187
1760841,1593583121.914,8187
1760842,1593583121.916,8187
1760843,1593583121.918,8187
1760844,1593583121.92,8187
1760845,1593583121.922,8187
1760846,1593583121.924,8187
1760847,1593583121.926,8187
1760848,1593583121.928,8187
1760849,1593583121.93,8186
1760850,1593583121.932,8185
1760851,1593583121.934,8185
1760852,1593583121.936,8185
1760853,1593583121.938,8185
1760854,1593583121.94,8185
1760855,1593583121.942,8185
1760856,1593583121.944,8185
1760857,1593583121.946,8186
1760858,1593583121.948,8186
1760859,1593583121.95,8186
1760860,1593583121.952,8186
1760861,1593583121.954,8186
1760862,1593583121.956,8185
1760863,1593583121.958,8185
1760864,1593583121.96,8185
1760865,1593583121.962,8186
1760866,1593583121.964,8186
1760867,1593583121.966,8186
1760868,1593583121.968,8186
1760869,1593583121.97,8186
1760870,1593583121.972,8186
1760871,1593583121.974,8186
1760872,1593583121.976,8186
1760873,1593583121.978,8187
1760874,1593583121.98,8187
1760875,1593583121.982,8187
1760876,1593583121.984,8187
1760877,1593583121.986,8187
1760878,1593583121.988,8187
1760879,1593583121.99,8187
1760880,1593583121.992,8187
1760881,1593583121.994,8187
1760882,1593583121.996,8187
1760883,1593583121.998,8187
1760884,1593583122.0,8188
1760885,1593583122.002,8188
1760886,1593583122.004,8189
1760887,1593583122.006,8190
1760888,1593583122.008,8191
1760889,1593583122.01,8192
1760890,1593583122.012,8194
1760891,1593583122.014,8196
1760892,1593583122.016,8199
1760893,1593583122.018,8203
1760894,1593583122.02,8206
1760895,1593583122.022,8208
1760896,1593583122.024,8210
1760897,1593583122.026,8211
1760898,1593583122.028,8211
1760899,1593583122.03,8212
1760900,1593583122.032,8214
1760901,1593583122.034,8216
1760902,1593583122.036,8218
1760903,1593583122.038,8219
1760904,1593583122.04,8220
1760905,1593583122.042,8220
1760906,1593583122.044,8220
1760907,1593583122.046,8220
1760908,1593583122.048,8221
1760909,1593583122.05,8221
1760910,1593583122.052,8222
1760911,1593583122.054,8222
1760912,1593583122.056,8222
1760913,1593583122.058,8221
1760914,1593583122.06,8220
1760915,1593583122.062,8219
1760916,1593583122.064,8217
1760917,1593583122.066,8215
1760918,1593583122.068,8213
1760919,1593583122.07,8212
1760920,1593583122.072,8211
1760921,1593583122.074,8210
1760922,1593583122.076,8207
1760923,1593583122.078,8203
1760924,1593583122.08,8198
1760925,1593583122.082,8195
1760926,1593583122.084,8192
1760927,1593583122.086,8189
1760928,1593583122.088,8187
1760929,1593583122.09,8185
1760930,1593583122.092,8182
1760931,1593583122.094,8179
1760932,1593583122.096,8177
1760933,1593583122.098,8176
1760934,1593583122.1,8176
1760935,1593583122.102,8176
1760936,1593583122.104,8176
1760937,1593583122.106,8176
1760938,1593583122.108,8177
1760939,1593583122.11,8177
1760940,1593583122.112,8177
1760941,1593583122.114,8176
1760942,1593583122.116,8176
1760943,1593583122.118,8175
1760944,1593583122.12,8174
1760945,1593583122.122,8173
1760946,1593583122.124,8172
1760947,1593583122.126,8172
1760948,1593583122.128,8172
1760949,1593583122.13,8172
1760950,1593583122.132,8172
1760951,1593583122.134,8173
1760952,1593583122.136,8173
1760953,1593583122.138,8173
1760954,1593583122.14,8173
1760955,1593583122.142,8174
1760956,1593583122.144,8173
1760957,1593583122.146,8173
1760958,1593583122.148,8173
1760959,1593583122.15,8174
1760960,1593583122.152,8174
1760961,1593583122.154,8174
1760962,1593583122.156,8174
1760963,1593583122.158,8174
1760964,1593583122.16,8174
1760965,1593583122.162,8174
1760966,1593583122.164,8174
1760967,1593583122.166,8175
1760968,1593583122.168,8175
1760969,1593583122.17,8175
1760970,1593583122.172,8175
1760971,1593583122.174,8175
1760972,1593583122.176,8175
1760973,1593583122.178,8175
1760974,1593583122.18,8175
1760975,1593583122.182,8176
1760976,1593583122.184,8176
1760977,1593583122.186,8176
1760978,1593583122.188,8176
1760979,1593583122.19,8176
1760980,1593583122.192,8176
1760981,1593583122.194,8176
1760982,1593583122.196,8177
1760983,1593583122.198,8177
1760984,1593583122.2,8177
1760985,1593583122.202,8177
1760986,1593583122.204,8177
1760987,1593583122.206,8177
1760988,1593583122.208,8177
1760989,1593583122.21,8177
1760990,1593583122.212,8177
1760991,1593583122.214,8177
1760992,1593583122.216,8177
1760993,1593583122.218,8177
1760994,1593583122.22,8177
1760995,1593583122.222,8178
1760996,1593583122.224,8178
1760997,1593583122.226,8179
1760998,1593583122.228,8179
1760999,1593583122.23,8179
1761000,1593583122.232,8179
1761001,1593583122.234,8179
1761002,1593583122.236,8179
1761003,1593583122.238,8179
1761004,1593583122.24,8179
1761005,1593583122.242,8179
1761006,1593583122.244,8179
1761007,1593583122.246,8180
1761008,1593583122.248,8180
1761009,1593583122.25,8180
1761010,1593583122.252,8181
1761011,1593583122.254,8182
1761012,1593583122.256,8182
1761013,1593583122.258,8182
1761014,1593583122.26,8182
1761015,1593583122.262,8182
1761016,1593583122.264,8182
1761017,1593583122.266,8183
1761018,1593583122.268,8183
1761019,1593583122.27,8183
1761020,1593583122.272,8184
1761021,1593583122.274,8184
1761022,1593583122.276,8184
1761023,1593583122.278,8184
1761024,1593583122.28,8184
1761025,1593583122.282,8184
1761026,1593583122.284,8185
1761027,1593583122.286,8186
1761028,1593583122.288,8187
1761029,1593583122.29,8188
1761030,1593583122.292,8190
1761031,1593583122.294,8192
1761032,1593583122.296,8195
1761033,1593583122.298,8199
1761034,1593583122.3,8204
1761035,1593583122.302,8209
1761036,1593583122.304,8215
1761037,1593583122.306,8221
1761038,1593583122.308,8227
1761039,1593583122.31,8234
1761040,1593583122.312,8241
1761041,1593583122.314,8248
1761042,1593583122.316,8255
1761043,1593583122.318,8260
1761044,1593583122.32,8264
1761045,1593583122.322,8266
1761046,1593583122.324,8264
1761047,1593583122.326,8258
1761048,1593583122.328,8251
1761049,1593583122.33,8241
1761050,1593583122.332,8229
1761051,1593583122.334,8214
1761052,1593583122.336,8195
1761053,1593583122.338,8171
1761054,1593583122.34,8145
1761055,1593583122.342,8122
1761056,1593583122.344,8103
1761057,1593583122.346,8087
1761058,1593583122.348,8076
1761059,1593583122.35,8070
1761060,1593583122.352,8066
1761061,1593583122.354,8064
1761062,1593583122.356,8065
1761063,1593583122.358,8068
1761064,1593583122.36,8071
1761065,1593583122.362,8074
1761066,1593583122.364,8075
1761067,1593583122.366,8073
1761068,1593583122.368,8070
1761069,1593583122.37,8064
1761070,1593583122.372,8055
1761071,1593583122.374,8044
1761072,1593583122.376,8032
1761073,1593583122.378,8021
1761074,1593583122.38,8012
1761075,1593583122.382,8003
1761076,1593583122.384,7990
1761077,1593583122.386,7974
1761078,1593583122.388,7953
1761079,1593583122.39,7929
1761080,1593583122.392,7904
1761081,1593583122.394,7882
1761082,1593583122.396,7869
1761083,1593583122.398,7868
1761084,1593583122.4,7879
1761085,1593583122.402,7898
1761086,1593583122.404,7922
1761087,1593583122.406,7950
1761088,1593583122.408,7977
1761089,1593583122.41,8005
1761090,1593583122.412,8033
1761091,1593583122.414,8063
1761092,1593583122.416,8096
1761093,1593583122.418,8129
1761094,1593583122.42,8158
1761095,1593583122.422,8180
1761096,1593583122.424,8194
1761097,1593583122.426,8203
1761098,1593583122.428,8208
1761099,1593583122.43,8210
1761100,1593583122.432,8212
1761101,1593583122.434,8214
1761102,1593583122.436,8215
1761103,1593583122.438,8216
1761104,1593583122.44,8217
1761105,1593583122.442,8217
1761106,1593583122.444,8218
1761107,1593583122.446,8218
1761108,1593583122.448,8219
1761109,1593583122.45,8219
1761110,1593583122.452,8219
1761111,1593583122.454,8219
1761112,1593583122.456,8219
1761113,1593583122.458,8218
1761114,1593583122.46,8218
1761115,1593583122.462,8218
1761116,1593583122.464,8218
1761117,1593583122.466,8218
1761118,1593583122.468,8218
1761119,1593583122.47,8218
1761120,1593583122.472,8217
1761121,1593583122.474,8217
1761122,1593583122.476,8217
1761123,1593583122.478,8217
1761124,1593583122.48,8216
1761125,1593583122.482,8215
1761126,1593583122.484,8214
1761127,1593583122.486,8214
1761128,1593583122.488,8214
1761129,1593583122.49,8214
1761130,1593583122.492,8214
1761131,1593583122.494,8214
1761132,1593583122.496,8214
1761133,1593583122.498,8213
1761134,1593583122.5,8213
1761135,1593583122.502,8213
1761136,1593583122.504,8213
1761137,1593583122.506,8213
1761138,1593583122.508,8213
1761139,1593583122.51,8213
1761140,1593583122.512,8212
1761141,1593583122.514,8212
1761142,1593583122.516,8211
1761143,1593583122.518,8211
1761144,1593583122.52,8211
1761145,1593583122.522,8211
1761146,1593583122.524,8211
1761147,1593583122.526,8211
1761148,1593583122.528,8211
1761149,1593583122.53,8211
1761150,1593583122.532,8211
1761151,1593583122.534,8210
1761152,1593583122.536,8210
1761153,1593583122.538,8210
1761154,1593583122.54,8210
1761155,1593583122.542,8211
1761156,1593583122.544,8210
1761157,1593583122.546,8210
1761158,1593583122.548,8209
1761159,1593583122.55,8209
1761160,1593583122.552,8209
1761161,1593583122.554,8210
1761162,1593583122.556,8210
1761163,1593583122.558,8210
1761164,1593583122.56,8210
1761165,1593583122.562,8210
1761166,1593583122.564,8210
1761167,1593583122.566,8210
1761168,1593583122.568,8210
1761169,1593583122.57,8210
1761170,1593583122.572,8210
1761171,1593583122.574,8210
1761172,1593583122.576,8211
1761173,1593583122.578,8211
1761174,1593583122.58,8211
1761175,1593583122.582,8211
1761176,1593583122.584,8211
1761177,1593583122.586,8212
1761178,1593583122.588,8212
1761179,1593583122.59,8213
1761180,1593583122.592,8214
1761181,1593583122.594,8214
1761182,1593583122.596,8214
1761183,1593583122.598,8215
1761184,1593583122.6,8215
1761185,1593583122.602,8216
1761186,1593583122.604,8217
1761187,1593583122.606,8218
1761188,1593583122.608,8219
1761189,1593583122.61,8220
1761190,1593583122.612,8221
1761191,1593583122.614,8221
1761192,1593583122.616,8222
1761193,1593583122.618,8224
1761194,1593583122.62,8225
1761195,1593583122.622,8226
1761196,1593583122.624,8227
1761197,1593583122.626,8229
1761198,1593583122.628,8229
1761199,1593583122.63,8230
1761200,1593583122.632,8231
1761201,1593583122.634,8233
1761202,1593583122.636,8234
1761203,1593583122.638,8235
1761204,1593583122.64,8237
1761205,1593583122.642,8238
1761206,1593583122.644,8240
1761207,1593583122.646,8241
1761208,1593583122.648,8243
1761209,1593583122.65,8244
1761210,1593583122.652,8245
1761211,1593583122.654,8247
1761212,1593583122.656,8249
1761213,1593583122.658,8250
1761214,1593583122.66,8252
1761215,1593583122.662,8254
1761216,1593583122.664,8255
1761217,1593583122.666,8257
1761218,1593583122.668,8258
1761219,1593583122.67,8259
1761220,1593583122.672,8261
1761221,1593583122.674,8262
1761222,1593583122.676,8264
1761223,1593583122.678,8265
1761224,1593583122.68,8267
1761225,1593583122.682,8268
1761226,1593583122.684,8269
1761227,1593583122.686,8270
1761228,1593583122.688,8271
1761229,1593583122.69,8273
1761230,1593583122.692,8274
1761231,1593583122.694,8275
1761232,1593583122.696,8275
1761233,1593583122.698,8275
1761234,1593583122.7,8276
1761235,1593583122.702,8276
1761236,1593583122.704,8276
1761237,1593583122.706,8277
1761238,1593583122.708,8277
1761239,1593583122.71,8277
1761240,1593583122.712,8276
1761241,1593583122.714,8275
1761242,1593583122.716,8273
1761243,1593583122.718,8272
1761244,1593583122.72,8270
1761245,1593583122.722,8269
1761246,1593583122.724,8267
1761247,1593583122.726,8266
1761248,1593583122.728,8264
1761249,1593583122.73,8263
1761250,1593583122.732,8261
1761251,1593583122.734,8259
1761252,1593583122.736,8258
1761253,1593583122.738,8256
1761254,1593583122.74,8254
1761255,1593583122.742,8252
1761256,1593583122.744,8249
1761257,1593583122.746,8247
1761258,1593583122.748,8244
1761259,1593583122.75,8242
1761260,1593583122.752,8240
1761261,1593583122.754,8238
1761262,1593583122.756,8236
1761263,1593583122.758,8235
1761264,1593583122.76,8233
1761265,1593583122.762,8231
1761266,1593583122.764,8229
1761267,1593583122.766,8227
1761268,1593583122.768,8225
1761269,1593583122.77,8223
1761270,1593583122.772,8220
1761271,1593583122.774,8218
1761272,1593583122.776,8217
1761273,1593583122.778,8215
1761274,1593583122.78,8214
1761275,1593583122.782,8212
1761276,1593583122.784,8210
1761277,1593583122.786,8209
1761278,1593583122.788,8207
1761279,1593583122.79,8206
1761280,1593583122.792,8205
1761281,1593583122.794,8204
1761282,1593583122.796,8203
1761283,1593583122.798,8201
1761284,1593583122.8,8201
1761285,1593583122.802,8200
1761286,1593583122.804,8199
1761287,1593583122.806,8198
1761288,1593583122.808,8197
1761289,1593583122.81,8196
1761290,1593583122.812,8195
1761291,1593583122.814,8194
1761292,1593583122.816,8194
1761293,1593583122.818,8193
1761294,1593583122.82,8193
1761295,1593583122.822,8193
1761296,1593583122.824,8192
1761297,1593583122.826,8191
1761298,1593583122.828,8191
1761299,1593583122.83,8190
1761300,1593583122.832,8190
1761301,1593583122.834,8189
1761302,1593583122.836,8189
1761303,1593583122.838,8189
1761304,1593583122.84,8189
1761305,1593583122.842,8189
1761306,1593583122.844,8189
1761307,1593583122.846,8188
1761308,1593583122.848,8188
1761309,1593583122.85,8188
1761310,1593583122.852,8188
1761311,1593583122.854,8188
1761312,1593583122.856,8188
1761313,1593583122.858,8188
1761314,1593583122.86,8188
1761315,1593583122.862,8187
1761316,1593583122.864,8187
1761317,1593583122.866,8187
1761318,1593583122.868,8187
1761319,1593583122.87,8187
1761320,1593583122.872,8187
1761321,1593583122.874,8187
1761322,1593583122.876,8187
1761323,1593583122.878,8187
1761324,1593583122.88,8187
1761325,1593583122.882,8187
1761326,1593583122.884,8187
1761327,1593583122.886,8187
1761328,1593583122.888,8187
1761329,1593583122.89,8187
1761330,1593583122.892,8187
1761331,1593583122.894,8187
1761332,1593583122.896,8187
1761333,1593583122.898,8187
1761334,1593583122.9,8187
1761335,1593583122.902,8187
1761336,1593583122.904,8187
1761337,1593583122.906,8187
1761338,1593583122.908,8187
1761339,1593583122.91,8186
1761340,1593583122.912,8186
1761341,1593583122.914,8186
1761342,1593583122.916,8186
1761343,1593583122.918,8186
1761344,1593583122.92,8186
1761345,1593583122.922,8186
1761346,1593583122.924,8186
1761347,1593583122.926,8186
1761348,1593583122.928,8185
1761349,1593583122.93,8185
1761350,1593583122.932,8185
1761351,1593583122.934,8185
1761352,1593583122.936,8185
1761353,1593583122.938,8185
1761354,1593583122.94,8185
1761355,1593583122.942,8186
1761356,1593583122.944,8186
1761357,1593583122.946,8186
1761358,1593583122.948,8187
1761359,1593583122.95,8187
1761360,1593583122.952,8187
1761361,1593583122.954,8187
1761362,1593583122.956,8187
1761363,1593583122.958,8187
1761364,1593583122.96,8188
1761365,1593583122.962,8188
1761366,1593583122.964,8188
1761367,1593583122.966,8188
1761368,1593583122.968,8188
1761369,1593583122.97,8188
1761370,1593583122.972,8188
1761371,1593583122.974,8188
1761372,1593583122.976,8188
1761373,1593583122.978,8187
1761374,1593583122.98,8187
1761375,1593583122.982,8187
1761376,1593583122.984,8187
1761377,1593583122.986,8187
1761378,1593583122.988,8187
1761379,1593583122.99,8187
1761380,1593583122.992,8187
1761381,1593583122.994,8187
1761382,1593583122.996,8187
1761383,1593583122.998,8187
1761384,1593583123.0,8186
1761385,1593583123.002,8186
1761386,1593583123.004,8186
1761387,1593583123.006,8186
1761388,1593583123.008,8186
1761389,1593583123.01,8186
1761390,1593583123.012,8186
1761391,1593583123.014,8186
1761392,1593583123.016,8186
1761393,1593583123.018,8187
1761394,1593583123.02,8187
1761395,1593583123.022,8187
1761396,1593583123.024,8187
1761397,1593583123.026,8187
1761398,1593583123.028,8187
1761399,1593583123.03,8187
1761400,1593583123.032,8186
1761401,1593583123.034,8186
1761402,1593583123.036,8186
1761403,1593583123.038,8185
1761404,1593583123.04,8185
1761405,1593583123.042,8185
1761406,1593583123.044,8185
1761407,1593583123.046,8185
1761408,1593583123.048,8186
1761409,1593583123.05,8186
1761410,1593583123.052,8186
1761411,1593583123.054,8186
1761412,1593583123.056,8185
1761413,1593583123.058,8185
1761414,1593583123.06,8185
1761415,1593583123.062,8185
1761416,1593583123.064,8185
1761417,1593583123.066,8185
1761418,1593583123.068,8185
1761419,1593583123.07,8185
1761420,1593583123.072,8185
1761421,1593583123.074,8185
1761422,1593583123.076,8185
1761423,1593583123.078,8185
1761424,1593583123.08,8186
1761425,1593583123.082,8186
1761426,1593583123.084,8186
1761427,1593583123.086,8186
1761428,1593583123.088,8186
1761429,1593583123.09,8186
1761430,1593583123.092,8186
1761431,1593583123.094,8186
1761432,1593583123.096,8186
1761433,1593583123.098,8186
1761434,1593583123.1,8186
1761435,1593583123.102,8186
1761436,1593583123.104,8186
1761437,1593583123.106,8186
1761438,1593583123.108,8186
1761439,1593583123.11,8186
1761440,1593583123.112,8187
1761441,1593583123.114,8187
1761442,1593583123.116,8187
1761443,1593583123.118,8187
1761444,1593583123.12,8187
1761445,1593583123.122,8187
1761446,1593583123.124,8187
1761447,1593583123.126,8187
1761448,1593583123.128,8187
1761449,1593583123.13,8186
1761450,1593583123.132,8186
1761451,1593583123.134,8186
1761452,1593583123.136,8185
1761453,1593583123.138,8185
1761454,1593583123.14,8186
1761455,1593583123.142,8186
1761456,1593583123.144,8186
1761457,1593583123.146,8186
1761458,1593583123.148,8187
1761459,1593583123.15,8187
1761460,1593583123.152,8187
1761461,1593583123.154,8188
1761462,1593583123.156,8188
1761463,1593583123.158,8188
1761464,1593583123.16,8188
1761465,1593583123.162,8188
1761466,1593583123.164,8188
1761467,1593583123.166,8187
1761468,1593583123.168,8187
1761469,1593583123.17,8187
1761470,1593583123.172,8187
1761471,1593583123.174,8187
1761472,1593583123.176,8187
1761473,1593583123.178,8186
1761474,1593583123.18,8186
1761475,1593583123.182,8186
1761476,1593583123.184,8186
1761477,1593583123.186,8186
1761478,1593583123.188,8185
1761479,1593583123.19,8185
1761480,1593583123.192,8185
1761481,1593583123.194,8186
1761482,1593583123.196,8186
1761483,1593583123.198,8186
1761484,1593583123.2,8186
1761485,1593583123.202,8186
1761486,1593583123.204,8186
1761487,1593583123.206,8186
1761488,1593583123.208,8186
1761489,1593583123.21,8186
1761490,1593583123.212,8186
1761491,1593583123.214,8186
1761492,1593583123.216,8186
1761493,1593583123.218,8186
1761494,1593583123.22,8186
1761495,1593583123.222,8186
1761496,1593583123.224,8186
1761497,1593583123.226,8187
1761498,1593583123.228,8187
1761499,1593583123.23,8187
1761500,1593583123.232,8187
1761501,1593583123.234,8187
1761502,1593583123.236,8187
1761503,1593583123.238,8187
1761504,1593583123.24,8188
1761505,1593583123.242,8188
1761506,1593583123.244,8188
1761507,1593583123.246,8188
1761508,1593583123.248,8188
1761509,1593583123.25,8188
1761510,1593583123.252,8188
1761511,1593583123.254,8188
1761512,1593583123.256,8188
1761513,1593583123.258,8188
1761514,1593583123.26,8188
1761515,1593583123.262,8188
1761516,1593583123.264,8188
1761517,1593583123.266,8188
1761518,1593583123.268,8188
1761519,1593583123.27,8188
1761520,1593583123.272,8188
1761521,1593583123.274,8188
1761522,1593583123.276,8187
1761523,1593583123.278,8187
1761524,1593583123.28,8187
1761525,1593583123.282,8187
1761526,1593583123.284,8187
1761527,1593583123.286,8187
1761528,1593583123.288,8187
1761529,1593583123.29,8187
1761530,1593583123.292,8187
1761531,1593583123.294,8187
1761532,1593583123.296,8187
1761533,1593583123.298,8187
1761534,1593583123.3,8187
1761535,1593583123.302,8187
1761536,1593583123.304,8187
1761537,1593583123.306,8187
1761538,1593583123.308,8187
1761539,1593583123.31,8187
1761540,1593583123.312,8187
1761541,1593583123.314,8187
1761542,1593583123.316,8187
1761543,1593583123.318,8187
1761544,1593583123.32,8187
1761545,1593583123.322,8187
1761546,1593583123.324,8188
1761547,1593583123.326,8188
1761548,1593583123.328,8188
1761549,1593583123.33,8188
1761550,1593583123.332,8188
1761551,1593583123.334,8188
1761552,1593583123.336,8188
1761553,1593583123.338,8188
1761554,1593583123.34,8188
1761555,1593583123.342,8188
1761556,1593583123.344,8188
1761557,1593583123.346,8188
1761558,1593583123.348,8188
1761559,1593583123.35,8188
1761560,1593583123.352,8188
1761561,1593583123.354,8188
1761562,1593583123.356,8188
1761563,1593583123.358,8188
1761564,1593583123.36,8188
1761565,1593583123.362,8188
1761566,1593583123.364,8188
1761567,1593583123.366,8188
1761568,1593583123.368,8188
1761569,1593583123.37,8188
1761570,1593583123.372,8188
1761571,1593583123.374,8188
1761572,1593583123.376,8188
1761573,1593583123.378,8188
1761574,1593583123.38,8188
1761575,1593583123.382,8187
1761576,1593583123.384,8188
1761577,1593583123.386,8188
1761578,1593583123.388,8189
1761579,1593583123.39,8189
1761580,1593583123.392,8189
1761581,1593583123.394,8190
1761582,1593583123.396,8190
1761583,1593583123.398,8190
1761584,1593583123.4,8190
1761585,1593583123.402,8190
1761586,1593583123.404,8190
1761587,1593583123.406,8190
1761588,1593583123.408,8190
1761589,1593583123.41,8190
1761590,1593583123.412,8190
1761591,1593583123.414,8190
1761592,1593583123.416,8190
1761593,1593583123.418,8191
1761594,1593583123.42,8191
1761595,1593583123.422,8192
1761596,1593583123.424,8193
1761597,1593583123.426,8194
1761598,1593583123.428,8194
1761599,1593583123.43,8195
1761600,1593583123.432,8195
1761601,1593583123.434,8196
1761602,1593583123.436,8197
1761603,1593583123.438,8198
1761604,1593583123.44,8200
1761605,1593583123.442,8201
1761606,1593583123.444,8204
1761607,1593583123.446,8206
1761608,1593583123.448,8209
1761609,1593583123.45,8212
1761610,1593583123.452,8214
1761611,1593583123.454,8215
1761612,1593583123.456,8217
1761613,1593583123.458,8219
1761614,1593583123.46,8221
1761615,1593583123.462,8222
1761616,1593583123.464,8223
1761617,1593583123.466,8223
1761618,1593583123.468,8222
1761619,1593583123.47,8221
1761620,1593583123.472,8221
1761621,1593583123.474,8220
1761622,1593583123.476,8220
1761623,1593583123.478,8219
1761624,1593583123.48,8218
1761625,1593583123.482,8217
1761626,1593583123.484,8216
1761627,1593583123.486,8215
1761628,1593583123.488,8214
1761629,1593583123.49,8214
1761630,1593583123.492,8213
1761631,1593583123.494,8212
1761632,1593583123.496,8211
1761633,1593583123.498,8210
1761634,1593583123.5,8210
1761635,1593583123.502,8209
1761636,1593583123.504,8208
1761637,1593583123.506,8206
1761638,1593583123.508,8203
1761639,1593583123.51,8200
1761640,1593583123.512,8197
1761641,1593583123.514,8194
1761642,1593583123.516,8192
1761643,1593583123.518,8190
1761644,1593583123.52,8187
1761645,1593583123.522,8185
1761646,1593583123.524,8182
1761647,1593583123.526,8180
1761648,1593583123.528,8178
1761649,1593583123.53,8177
1761650,1593583123.532,8176
1761651,1593583123.534,8176
1761652,1593583123.536,8176
1761653,1593583123.538,8177
1761654,1593583123.54,8177
1761655,1593583123.542,8177
1761656,1593583123.544,8176
1761657,1593583123.546,8175
1761658,1593583123.548,8174
1761659,1593583123.55,8174
1761660,1593583123.552,8174
1761661,1593583123.554,8174
1761662,1593583123.556,8174
1761663,1593583123.558,8174
1761664,1593583123.56,8174
1761665,1593583123.562,8174
1761666,1593583123.564,8174
1761667,1593583123.566,8174
1761668,1593583123.568,8174
1761669,1593583123.57,8174
1761670,1593583123.572,8173
1761671,1593583123.574,8173
1761672,1593583123.576,8172
1761673,1593583123.578,8172
1761674,1593583123.58,8172
1761675,1593583123.582,8172
1761676,1593583123.584,8172
1761677,1593583123.586,8172
1761678,1593583123.588,8172
1761679,1593583123.59,8172
1761680,1593583123.592,8172
1761681,1593583123.594,8172
1761682,1593583123.596,8172
1761683,1593583123.598,8172
1761684,1593583123.6,8173
1761685,1593583123.602,8173
1761686,1593583123.604,8173
1761687,1593583123.606,8172
1761688,1593583123.608,8172
1761689,1593583123.61,8172
1761690,1593583123.612,8172
1761691,1593583123.614,8172
1761692,1593583123.616,8172
1761693,1593583123.618,8173
1761694,1593583123.62,8173
1761695,1593583123.622,8173
1761696,1593583123.624,8173
1761697,1593583123.626,8173
1761698,1593583123.628,8173
1761699,1593583123.63,8174
1761700,1593583123.632,8175
1761701,1593583123.634,8175
1761702,1593583123.636,8175
1761703,1593583123.638,8175
1761704,1593583123.64,8175
1761705,1593583123.642,8175
1761706,1593583123.644,8175
1761707,1593583123.646,8175
1761708,1593583123.648,8176
1761709,1593583123.65,8176
1761710,1593583123.652,8177
1761711,1593583123.654,8177
1761712,1593583123.656,8177
1761713,1593583123.658,8178
1761714,1593583123.66,8178
1761715,1593583123.662,8178
1761716,1593583123.664,8178
1761717,1593583123.666,8179
1761718,1593583123.668,8179
1761719,1593583123.67,8180
1761720,1593583123.672,8180
1761721,1593583123.674,8180
1761722,1593583123.676,8181
1761723,1593583123.678,8181
1761724,1593583123.68,8181
1761725,1593583123.682,8181
1761726,1593583123.684,8181
1761727,1593583123.686,8182
1761728,1593583123.688,8182
1761729,1593583123.69,8183
1761730,1593583123.692,8183
1761731,1593583123.694,8183
1761732,1593583123.696,8183
1761733,1593583123.698,8183
1761734,1593583123.7,8183
1761735,1593583123.702,8184
1761736,1593583123.704,8184
1761737,1593583123.706,8185
1761738,1593583123.708,8186
1761739,1593583123.71,8186
1761740,1593583123.712,8187
1761741,1593583123.714,8188
1761742,1593583123.716,8189
1761743,1593583123.718,8191
1761744,1593583123.72,8194
1761745,1593583123.722,8198
1761746,1593583123.724,8202
1761747,1593583123.726,8208
1761748,1593583123.728,8213
1761749,1593583123.73,8219
1761750,1593583123.732,8226
1761751,1593583123.734,8232
1761752,1593583123.736,8239
1761753,1593583123.738,8245
1761754,1593583123.74,8252
1761755,1593583123.742,8258
1761756,1593583123.744,8263
1761757,1593583123.746,8266
1761758,1593583123.748,8266
1761759,1593583123.75,8263
1761760,1593583123.752,8256
1761761,1593583123.754,8247
1761762,1593583123.756,8237
1761763,1593583123.758,8225
1761764,1593583123.76,8211
1761765,1593583123.762,8191
1761766,1593583123.764,8167
1761767,1593583123.766,8142
1761768,1593583123.768,8120
1761769,1593583123.77,8101
1761770,1593583123.772,8087
1761771,1593583123.774,8077
1761772,1593583123.776,8072
1761773,1593583123.778,8069
1761774,1593583123.78,8069
1761775,1593583123.782,8071
1761776,1593583123.784,8074
1761777,1593583123.786,8078
1761778,1593583123.788,8080
1761779,1593583123.79,8080
1761780,1593583123.792,8078
1761781,1593583123.794,8072
1761782,1593583123.796,8064
1761783,1593583123.798,8055
1761784,1593583123.8,8043
1761785,1593583123.802,8032
1761786,1593583123.804,8024
1761787,1593583123.806,8016
1761788,1593583123.808,8005
1761789,1593583123.81,7990
1761790,1593583123.812,7969
1761791,1593583123.814,7944
1761792,1593583123.816,7917
1761793,1593583123.818,7892
1761794,1593583123.82,7875
1761795,1593583123.822,7867
1761796,1593583123.824,7871
1761797,1593583123.826,7886
1761798,1593583123.828,7907
1761799,1593583123.83,7932
1761800,1593583123.832,7959
1761801,1593583123.834,7988
1761802,1593583123.836,8018
1761803,1593583123.838,8050
1761804,1593583123.84,8084
1761805,1593583123.842,8119
1761806,1593583123.844,8149
1761807,1593583123.846,8172
1761808,1593583123.848,8188
1761809,1593583123.85,8198
1761810,1593583123.852,8204
1761811,1593583123.854,8208
1761812,1593583123.856,8211
1761813,1593583123.858,8213
1761814,1593583123.86,8215
1761815,1593583123.862,8216
1761816,1593583123.864,8217
1761817,1593583123.866,8217
1761818,1593583123.868,8218
1761819,1593583123.87,8218
1761820,1593583123.872,8219
1761821,1593583123.874,8219
1761822,1593583123.876,8219
1761823,1593583123.878,8219
1761824,1593583123.88,8219
1761825,1593583123.882,8218
1761826,1593583123.884,8217
1761827,1593583123.886,8217
1761828,1593583123.888,8217
1761829,1593583123.89,8217
1761830,1593583123.892,8217
1761831,1593583123.894,8217
1761832,1593583123.896,8216
1761833,1593583123.898,8215
1761834,1593583123.9,8215
1761835,1593583123.902,8215
1761836,1593583123.904,8215
1761837,1593583123.906,8215
1761838,1593583123.908,8215
1761839,1593583123.91,8215
1761840,1593583123.912,8214
1761841,1593583123.914,8213
1761842,1593583123.916,8213
1761843,1593583123.918,8213
1761844,1593583123.92,8213
1761845,1593583123.922,8213
1761846,1593583123.924,8213
1761847,1593583123.926,8213
1761848,1593583123.928,8213
1761849,1593583123.93,8213
1761850,1593583123.932,8213
1761851,1593583123.934,8213
1761852,1593583123.936,8213
1761853,1593583123.938,8213
1761854,1593583123.94,8213
1761855,1593583123.942,8213
1761856,1593583123.944,8212
1761857,1593583123.946,8212
1761858,1593583123.948,8212
1761859,1593583123.95,8212
1761860,1593583123.952,8212
1761861,1593583123.954,8212
1761862,1593583123.956,8212
1761863,1593583123.958,8212
1761864,1593583123.96,8211
1761865,1593583123.962,8211
1761866,1593583123.964,8211
1761867,1593583123.966,8211
1761868,1593583123.968,8211
1761869,1593583123.97,8211
1761870,1593583123.972,8211
1761871,1593583123.974,8211
1761872,1593583123.976,8210
1761873,1593583123.978,8211
1761874,1593583123.98,8211
1761875,1593583123.982,8211
1761876,1593583123.984,8211
1761877,1593583123.986,8212
1761878,1593583123.988,8212
1761879,1593583123.99,8212
1761880,1593583123.992,8211
1761881,1593583123.994,8211
1761882,1593583123.996,8211
1761883,1593583123.998,8211
1761884,1593583124.0,8212
1761885,1593583124.002,8212
1761886,1593583124.004,8212
1761887,1593583124.006,8213
1761888,1593583124.008,8213
1761889,1593583124.01,8213
1761890,1593583124.012,8213
1761891,1593583124.014,8214
1761892,1593583124.016,8215
1761893,1593583124.018,8216
1761894,1593583124.02,8216
1761895,1593583124.022,8217
1761896,1593583124.024,8218
1761897,1593583124.026,8218
1761898,1593583124.028,8219
1761899,1593583124.03,8220
1761900,1593583124.032,8220
1761901,1593583124.034,8221
1761902,1593583124.036,8222
1761903,1593583124.038,8223
1761904,1593583124.04,8224
1761905,1593583124.042,8225
1761906,1593583124.044,8226
1761907,1593583124.046,8227
1761908,1593583124.048,8229
1761909,1593583124.05,8230
1761910,1593583124.052,8231
1761911,1593583124.054,8232
1761912,1593583124.056,8234
1761913,1593583124.058,8235
1761914,1593583124.06,8237
1761915,1593583124.062,8238
1761916,1593583124.064,8239
1761917,1593583124.066,8240
1761918,1593583124.068,8242
1761919,1593583124.07,8243
1761920,1593583124.072,8245
1761921,1593583124.074,8246
1761922,1593583124.076,8248
1761923,1593583124.078,8249
1761924,1593583124.08,8250
1761925,1593583124.082,8252
1761926,1593583124.084,8254
1761927,1593583124.086,8256
1761928,1593583124.088,8257
1761929,1593583124.09,8259
1761930,1593583124.092,8261
1761931,1593583124.094,8263
1761932,1593583124.096,8264
1761933,1593583124.098,8265
1761934,1593583124.1,8267
1761935,1593583124.102,8268
1761936,1593583124.104,8270
1761937,1593583124.106,8270
1761938,1593583124.108,8271
1761939,1593583124.11,8272
1761940,1593583124.112,8273
1761941,1593583124.114,8274
1761942,1593583124.116,8275
1761943,1593583124.118,8276
1761944,1593583124.12,8276
1761945,1593583124.122,8277
1761946,1593583124.124,8277
1761947,1593583124.126,8277
1761948,1593583124.128,8277
1761949,1593583124.13,8277
1761950,1593583124.132,8277
1761951,1593583124.134,8276
1761952,1593583124.136,8275
1761953,1593583124.138,8274
1761954,1593583124.14,8273
1761955,1593583124.142,8272
1761956,1593583124.144,8270
1761957,1593583124.146,8269
1761958,1593583124.148,8267
1761959,1593583124.15,8266
1761960,1593583124.152,8264
1761961,1593583124.154,8263
1761962,1593583124.156,8261
1761963,1593583124.158,8259
1761964,1593583124.16,8257
1761965,1593583124.162,8255
1761966,1593583124.164,8253
1761967,1593583124.166,8251
1761968,1593583124.168,8249
1761969,1593583124.17,8247
1761970,1593583124.172,8245
1761971,1593583124.174,8243
1761972,1593583124.176,8241
1761973,1593583124.178,8238
1761974,1593583124.18,8236
1761975,1593583124.182,8233
1761976,1593583124.184,8231
1761977,1593583124.186,8229
1761978,1593583124.188,8227
1761979,1593583124.19,8224
1761980,1593583124.192,8223
1761981,1593583124.194,8221
1761982,1593583124.196,8219
1761983,1593583124.198,8218
1761984,1593583124.2,8216
1761985,1593583124.202,8215
1761986,1593583124.204,8213
1761987,1593583124.206,8212
1761988,1593583124.208,8211
1761989,1593583124.21,8209
1761990,1593583124.212,8208
1761991,1593583124.214,8206
1761992,1593583124.216,8204
1761993,1593583124.218,8203
1761994,1593583124.22,8202
1761995,1593583124.222,8200
1761996,1593583124.224,8199
1761997,1593583124.226,8198
1761998,1593583124.228,8197
1761999,1593583124.23,8196
1762000,1593583124.232,8196
1762001,1593583124.234,8195
1762002,1593583124.236,8194
1762003,1593583124.238,8193
1762004,1593583124.24,8193
1762005,1593583124.242,8192
1762006,1593583124.244,8191
1762007,1593583124.246,8191
1762008,1593583124.248,8191
1762009,1593583124.25,8190
1762010,1593583124.252,8190
1762011,1593583124.254,8190
1762012,1593583124.256,8190
1762013,1593583124.258,8190
1762014,1593583124.26,8190
1762015,1593583124.262,8190
1762016,1593583124.264,8190
1762017,1593583124.266,8190
1762018,1593583124.268,8190
1762019,1593583124.27,8190
1762020,1593583124.272,8190
1762021,1593583124.274,8190
1762022,1593583124.276,8189
1762023,1593583124.278,8189
1762024,1593583124.28,8188
1762025,1593583124.282,8188
1762026,1593583124.284,8187
1762027,1593583124.286,8187
1762028,1593583124.288,8187
1762029,1593583124.29,8187
1762030,1593583124.292,8187
1762031,1593583124.294,8187
1762032,1593583124.296,8187
1762033,1593583124.298,8187
1762034,1593583124.3,8187
1762035,1593583124.302,8187
1762036,1593583124.304,8187
1762037,1593583124.306,8187
1762038,1593583124.308,8187
1762039,1593583124.31,8187
1762040,1593583124.312,8187
1762041,1593583124.314,8187
1762042,1593583124.316,8187
1762043,1593583124.318,8187
1762044,1593583124.32,8188
1762045,1593583124.322,8188
1762046,1593583124.324,8187
1762047,1593583124.326,8187
1762048,1593583124.328,8187
1762049,1593583124.33,8187
1762050,1593583124.332,8187
1762051,1593583124.334,8187
1762052,1593583124.336,8187
1762053,1593583124.338,8187
1762054,1593583124.34,8187
1762055,1593583124.342,8187
1762056,1593583124.344,8187
1762057,1593583124.346,8187
1762058,1593583124.348,8187
1762059,1593583124.35,8187
1762060,1593583124.352,8187
1762061,1593583124.354,8187
1762062,1593583124.356,8187
1762063,1593583124.358,8187
1762064,1593583124.36,8187
1762065,1593583124.362,8186
1762066,1593583124.364,8186
1762067,1593583124.366,8186
1762068,1593583124.368,8185
1762069,1593583124.37,8186
1762070,1593583124.372,8186
1762071,1593583124.374,8187
1762072,1593583124.376,8187
1762073,1593583124.378,8187
1762074,1593583124.38,8186
1762075,1593583124.382,8186
1762076,1593583124.384,8186
1762077,1593583124.386,8186
1762078,1593583124.388,8186
1762079,1593583124.39,8186
1762080,1593583124.392,8186
1762081,1593583124.394,8186
1762082,1593583124.396,8186
1762083,1593583124.398,8186
1762084,1593583124.4,8186
1762085,1593583124.402,8186
1762086,1593583124.404,8186
1762087,1593583124.406,8187
1762088,1593583124.408,8187
1762089,1593583124.41,8186
1762090,1593583124.412,8186
1762091,1593583124.414,8186
1762092,1593583124.416,8186
1762093,1593583124.418,8186
1762094,1593583124.42,8185
1762095,1593583124.422,8185
1762096,1593583124.424,8185
1762097,1593583124.426,8186
1762098,1593583124.428,8186
1762099,1593583124.43,8186
1762100,1593583124.432,8186
1762101,1593583124.434,8186
1762102,1593583124.436,8186
1762103,1593583124.438,8187
1762104,1593583124.44,8187
1762105,1593583124.442,8187
1762106,1593583124.444,8187
1762107,1593583124.446,8187
1762108,1593583124.448,8186
1762109,1593583124.45,8186
1762110,1593583124.452,8186
1762111,1593583124.454,8186
1762112,1593583124.456,8186
1762113,1593583124.458,8186
1762114,1593583124.46,8186
1762115,1593583124.462,8186
1762116,1593583124.464,8186
1762117,1593583124.466,8186
1762118,1593583124.468,8186
1762119,1593583124.47,8186
1762120,1593583124.472,8186
1762121,1593583124.474,8186
1762122,1593583124.476,8186
1762123,1593583124.478,8186
1762124,1593583124.48,8186
1762125,1593583124.482,8186
1762126,1593583124.484,8187
1762127,1593583124.486,8187
1762128,1593583124.488,8186
1762129,1593583124.49,8187
1762130,1593583124.492,8187
1762131,1593583124.494,8187
1762132,1593583124.496,8187
1762133,1593583124.498,8187
1762134,1593583124.5,8187
1762135,1593583124.502,8187
1762136,1593583124.504,8187
1762137,1593583124.506,8187
1762138,1593583124.508,8186
1762139,1593583124.51,8186
1762140,1593583124.512,8186
1762141,1593583124.514,8186
1762142,1593583124.516,8186
1762143,1593583124.518,8186
1762144,1593583124.52,8186
1762145,1593583124.522,8187
1762146,1593583124.524,8187
1762147,1593583124.526,8187
1762148,1593583124.528,8187
1762149,1593583124.53,8187
1762150,1593583124.532,8187
1762151,1593583124.534,8187
1762152,1593583124.536,8187
1762153,1593583124.538,8187
1762154,1593583124.54,8187
1762155,1593583124.542,8187
1762156,1593583124.544,8187
1762157,1593583124.546,8187
1762158,1593583124.548,8187
1762159,1593583124.55,8187
1762160,1593583124.552,8187
1762161,1593583124.554,8187
1762162,1593583124.556,8187
1762163,1593583124.558,8187
1762164,1593583124.56,8186
1762165,1593583124.562,8186
1762166,1593583124.564,8186
1762167,1593583124.566,8186
1762168,1593583124.568,8187
1762169,1593583124.57,8187
1762170,1593583124.572,8187
1762171,1593583124.574,8187
1762172,1593583124.576,8187
1762173,1593583124.578,8187
1762174,1593583124.58,8188
1762175,1593583124.582,8189
1762176,1593583124.584,8189
1762177,1593583124.586,8191
1762178,1593583124.588,8192
1762179,1593583124.59,8193
1762180,1593583124.592,8194
1762181,1593583124.594,8195
1762182,1593583124.596,8197
1762183,1593583124.598,8198
1762184,1593583124.6,8198
1762185,1593583124.602,8199
1762186,1593583124.604,8200
1762187,1593583124.606,8202
1762188,1593583124.608,8205
1762189,1593583124.61,8208
1762190,1593583124.612,8211
1762191,1593583124.614,8213
1762192,1593583124.616,8215
1762193,1593583124.618,8217
1762194,1593583124.62,8219
1762195,1593583124.622,8220
1762196,1593583124.624,8221
1762197,1593583124.626,8222
1762198,1593583124.628,8222
1762199,1593583124.63,8221
1762200,1593583124.632,8220
1762201,1593583124.634,8219
1762202,1593583124.636,8219
1762203,1593583124.638,8219
1762204,1593583124.64,8218
1762205,1593583124.642,8218
1762206,1593583124.644,8217
1762207,1593583124.646,8215
1762208,1593583124.648,8214
1762209,1593583124.65,8214
1762210,1593583124.652,8214
1762211,1593583124.654,8213
1762212,1593583124.656,8212
1762213,1593583124.658,8211
1762214,1593583124.66,8211
1762215,1593583124.662,8210
1762216,1593583124.664,8209
1762217,1593583124.666,8209
1762218,1593583124.668,8207
1762219,1593583124.67,8205
1762220,1593583124.672,8202
1762221,1593583124.674,8199
1762222,1593583124.676,8196
1762223,1593583124.678,8193
1762224,1593583124.68,8190
1762225,1593583124.682,8187
1762226,1593583124.684,8184
1762227,1593583124.686,8181
1762228,1593583124.688,8178
1762229,1593583124.69,8176
1762230,1593583124.692,8175
1762231,1593583124.694,8175
1762232,1593583124.696,8174
1762233,1593583124.698,8174
1762234,1593583124.7,8175
1762235,1593583124.702,8175
1762236,1593583124.704,8175
1762237,1593583124.706,8175
1762238,1593583124.708,8174
1762239,1593583124.71,8174
1762240,1593583124.712,8173
1762241,1593583124.714,8172
1762242,1593583124.716,8171
1762243,1593583124.718,8170
1762244,1593583124.72,8170
1762245,1593583124.722,8171
1762246,1593583124.724,8171
1762247,1593583124.726,8171
1762248,1593583124.728,8171
1762249,1593583124.73,8171
1762250,1593583124.732,8171
1762251,1593583124.734,8171
1762252,1593583124.736,8171
1762253,1593583124.738,8171
1762254,1593583124.74,8171
1762255,1593583124.742,8171
1762256,1593583124.744,8171
1762257,1593583124.746,8171
1762258,1593583124.748,8171
1762259,1593583124.75,8171
1762260,1593583124.752,8171
1762261,1593583124.754,8172
1762262,1593583124.756,8172
1762263,1593583124.758,8172
1762264,1593583124.76,8172
1762265,1593583124.762,8172
1762266,1593583124.764,8172
1762267,1593583124.766,8172
1762268,1593583124.768,8172
1762269,1593583124.77,8172
1762270,1593583124.772,8172
1762271,1593583124.774,8172
1762272,1593583124.776,8172
1762273,1593583124.778,8172
1762274,1593583124.78,8172
1762275,1593583124.782,8172
1762276,1593583124.784,8172
1762277,1593583124.786,8172
1762278,1593583124.788,8173
1762279,1593583124.79,8173
1762280,1593583124.792,8173
1762281,1593583124.794,8174
1762282,1593583124.796,8174
1762283,1593583124.798,8174
1762284,1593583124.8,8174
1762285,1593583124.802,8174
1762286,1593583124.804,8175
1762287,1593583124.806,8176
1762288,1593583124.808,8176
1762289,1593583124.81,8176
1762290,1593583124.812,8176
1762291,1593583124.814,8176
1762292,1593583124.816,8176
1762293,1593583124.818,8176
1762294,1593583124.82,8177
1762295,1593583124.822,8177
1762296,1593583124.824,8177
1762297,1593583124.826,8178
1762298,1593583124.828,8178
1762299,1593583124.83,8178
1762300,1593583124.832,8178
1762301,1593583124.834,8178
1762302,1593583124.836,8179
1762303,1593583124.838,8179
1762304,1593583124.84,8179
1762305,1593583124.842,8179
1762306,1593583124.844,8180
1762307,1593583124.846,8180
1762308,1593583124.848,8180
1762309,1593583124.85,8181
1762310,1593583124.852,8181
1762311,1593583124.854,8181
1762312,1593583124.856,8182
1762313,1593583124.858,8183
1762314,1593583124.86,8183
1762315,1593583124.862,8183
1762316,1593583124.864,8183
1762317,1593583124.866,8183
1762318,1593583124.868,8183
1762319,1593583124.87,8184
1762320,1593583124.872,8184
1762321,1593583124.874,8184
1762322,1593583124.876,8184
1762323,1593583124.878,8185
1762324,1593583124.88,8186
1762325,1593583124.882,8187
1762326,1593583124.884,8189
1762327,1593583124.886,8191
1762328,1593583124.888,8194
1762329,1593583124.89,8198
1762330,1593583124.892,8202
1762331,1593583124.894,8207
1762332,1593583124.896,8213
1762333,1593583124.898,8219
1762334,1593583124.9,8225
1762335,1593583124.902,8232
1762336,1593583124.904,8239
1762337,1593583124.906,8246
1762338,1593583124.908,8253
1762339,1593583124.91,8258
1762340,1593583124.912,8262
1762341,1593583124.914,8265
1762342,1593583124.916,8265
1762343,1593583124.918,8261
1762344,1593583124.92,8255
1762345,1593583124.922,8246
1762346,1593583124.924,8236
1762347,1593583124.926,8223
1762348,1593583124.928,8206
1762349,1593583124.93,8184
1762350,1593583124.932,8160
1762351,1593583124.934,8137
1762352,1593583124.936,8115
1762353,1593583124.938,8097
1762354,1593583124.94,8082
1762355,1593583124.942,8073
1762356,1593583124.944,8067
1762357,1593583124.946,8064
1762358,1593583124.948,8064
1762359,1593583124.95,8066
1762360,1593583124.952,8070
1762361,1593583124.954,8074
1762362,1593583124.956,8077
1762363,1593583124.958,8076
1762364,1593583124.96,8073
1762365,1593583124.962,8067
1762366,1593583124.964,8059
1762367,1593583124.966,8049
1762368,1593583124.968,8036
1762369,1593583124.97,8024
1762370,1593583124.972,8014
1762371,1593583124.974,8006
1762372,1593583124.976,7996
1762373,1593583124.978,7982
1762374,1593583124.98,7963
1762375,1593583124.982,7939
1762376,1593583124.984,7912
1762377,1593583124.986,7889
1762378,1593583124.988,7872
1762379,1593583124.99,7866
1762380,1593583124.992,7871
1762381,1593583124.994,7887
1762382,1593583124.996,7909
1762383,1593583124.998,7933
1762384,1593583125.0,7958
1762385,1593583125.002,7985
1762386,1593583125.004,8013
1762387,1593583125.006,8044
1762388,1593583125.008,8077
1762389,1593583125.01,8111
1762390,1593583125.012,8141
1762391,1593583125.014,8166
1762392,1593583125.016,8184
1762393,1593583125.018,8196
1762394,1593583125.02,8203
1762395,1593583125.022,8207
1762396,1593583125.024,8210
1762397,1593583125.026,8212
1762398,1593583125.028,8214
1762399,1593583125.03,8215
1762400,1593583125.032,8217
1762401,1593583125.034,8218
1762402,1593583125.036,8218
1762403,1593583125.038,8218
1762404,1593583125.04,8218
1762405,1593583125.042,8218
1762406,1593583125.044,8218
1762407,1593583125.046,8218
1762408,1593583125.048,8218
1762409,1593583125.05,8218
1762410,1593583125.052,8218
1762411,1593583125.054,8218
1762412,1593583125.056,8218
1762413,1593583125.058,8217
1762414,1593583125.06,8217
1762415,1593583125.062,8217
1762416,1593583125.064,8217
1762417,1593583125.066,8217
1762418,1593583125.068,8217
1762419,1593583125.07,8216
1762420,1593583125.072,8216
1762421,1593583125.074,8216
1762422,1593583125.076,8216
1762423,1593583125.078,8216
1762424,1593583125.08,8216
1762425,1593583125.082,8215
1762426,1593583125.084,8215
1762427,1593583125.086,8215
1762428,1593583125.088,8215
1762429,1593583125.09,8215
1762430,1593583125.092,8215
1762431,1593583125.094,8214
1762432,1593583125.096,8214
1762433,1593583125.098,8214
1762434,1593583125.1,8214
1762435,1593583125.102,8213
1762436,1593583125.104,8213
1762437,1593583125.106,8213
1762438,1593583125.108,8213
1762439,1593583125.11,8213
1762440,1593583125.112,8214
1762441,1593583125.114,8214
1762442,1593583125.116,8214
1762443,1593583125.118,8213
1762444,1593583125.12,8213
1762445,1593583125.122,8213
1762446,1593583125.124,8213
1762447,1593583125.126,8213
1762448,1593583125.128,8213
1762449,1593583125.13,8213
1762450,1593583125.132,8212
1762451,1593583125.134,8212
1762452,1593583125.136,8212
1762453,1593583125.138,8212
1762454,1593583125.14,8212
1762455,1593583125.142,8212
1762456,1593583125.144,8212
1762457,1593583125.146,8212
1762458,1593583125.148,8212
1762459,1593583125.15,8211
1762460,1593583125.152,8211
1762461,1593583125.154,8211
1762462,1593583125.156,8211
1762463,1593583125.158,8212
1762464,1593583125.16,8212
1762465,1593583125.162,8212
1762466,1593583125.164,8212
1762467,1593583125.166,8211
1762468,1593583125.168,8211
1762469,1593583125.17,8211
1762470,1593583125.172,8212
1762471,1593583125.174,8212
1762472,1593583125.176,8213
1762473,1593583125.178,8213
1762474,1593583125.18,8214
1762475,1593583125.182,8214
1762476,1593583125.184,8214
1762477,1593583125.186,8215
1762478,1593583125.188,8216
1762479,1593583125.19,8216
1762480,1593583125.192,8217
1762481,1593583125.194,8218
1762482,1593583125.196,8218
1762483,1593583125.198,8219
1762484,1593583125.2,8220
1762485,1593583125.202,8221
1762486,1593583125.204,8222
1762487,1593583125.206,8223
1762488,1593583125.208,8224
1762489,1593583125.21,8225
1762490,1593583125.212,8226
1762491,1593583125.214,8227
1762492,1593583125.216,8228
1762493,1593583125.218,8229
1762494,1593583125.22,8230
1762495,1593583125.222,8232
1762496,1593583125.224,8233
1762497,1593583125.226,8234
1762498,1593583125.228,8236
1762499,1593583125.23,8237
1762500,1593583125.232,8238
1762501,1593583125.234,8239
1762502,1593583125.236,8241
1762503,1593583125.238,8242
1762504,1593583125.24,8244
1762505,1593583125.242,8245
1762506,1593583125.244,8247
1762507,1593583125.246,8249
1762508,1593583125.248,8250
1762509,1593583125.25,8252
1762510,1593583125.252,8254
1762511,1593583125.254,8255
1762512,1593583125.256,8257
1762513,1593583125.258,8259
1762514,1593583125.26,8260
1762515,1593583125.262,8261
1762516,1593583125.264,8262
1762517,1593583125.266,8264
1762518,1593583125.268,8265
1762519,1593583125.27,8266
1762520,1593583125.272,8268
1762521,1593583125.274,8269
1762522,1593583125.276,8271
1762523,1593583125.278,8272
1762524,1593583125.28,8273
1762525,1593583125.282,8274
1762526,1593583125.284,8275
1762527,1593583125.286,8275
1762528,1593583125.288,8276
1762529,1593583125.29,8276
1762530,1593583125.292,8277
1762531,1593583125.294,8276
1762532,1593583125.296,8276
1762533,1593583125.298,8276
1762534,1593583125.3,8276
1762535,1593583125.302,8276
1762536,1593583125.304,8276
1762537,1593583125.306,8275
1762538,1593583125.308,8274
1762539,1593583125.31,8273
1762540,1593583125.312,8272
1762541,1593583125.314,8270
1762542,1593583125.316,8269
1762543,1593583125.318,8267
1762544,1593583125.32,8265
1762545,1593583125.322,8263
1762546,1593583125.324,8262
1762547,1593583125.326,8260
1762548,1593583125.328,8258
1762549,1593583125.33,8256
1762550,1593583125.332,8254
1762551,1593583125.334,8252
1762552,1593583125.336,8251
1762553,1593583125.338,8249
1762554,1593583125.34,8247
1762555,1593583125.342,8244
1762556,1593583125.344,8242
1762557,1593583125.346,8240
1762558,1593583125.348,8238
1762559,1593583125.35,8236
1762560,1593583125.352,8234
1762561,1593583125.354,8231
1762562,1593583125.356,8229
1762563,1593583125.358,8227
1762564,1593583125.36,8225
1762565,1593583125.362,8224
1762566,1593583125.364,8222
1762567,1593583125.366,8219
1762568,1593583125.368,8217
1762569,1593583125.37,8216
1762570,1593583125.372,8215
1762571,1593583125.374,8213
1762572,1593583125.376,8211
1762573,1593583125.378,8210
1762574,1593583125.38,8208
1762575,1593583125.382,8207
1762576,1593583125.384,8205
1762577,1593583125.386,8204
1762578,1593583125.388,8203
1762579,1593583125.39,8202
1762580,1593583125.392,8201
1762581,1593583125.394,8199
1762582,1593583125.396,8198
1762583,1593583125.398,8197
1762584,1593583125.4,8196
1762585,1593583125.402,8195
1762586,1593583125.404,8194
1762587,1593583125.406,8193
1762588,1593583125.408,8192
1762589,1593583125.41,8191
1762590,1593583125.412,8191
1762591,1593583125.414,8191
1762592,1593583125.416,8190
1762593,1593583125.418,8190
1762594,1593583125.42,8189
1762595,1593583125.422,8189
1762596,1593583125.424,8189
1762597,1593583125.426,8189
1762598,1593583125.428,8189
1762599,1593583125.43,8188
1762600,1593583125.432,8188
1762601,1593583125.434,8188
1762602,1593583125.436,8188
1762603,1593583125.438,8188
1762604,1593583125.44,8189
1762605,1593583125.442,8189
1762606,1593583125.444,8189
1762607,1593583125.446,8188
1762608,1593583125.448,8188
1762609,1593583125.45,8188
1762610,1593583125.452,8188
1762611,1593583125.454,8188
1762612,1593583125.456,8188
1762613,1593583125.458,8188
1762614,1593583125.46,8188
1762615,1593583125.462,8187
1762616,1593583125.464,8187
1762617,1593583125.466,8187
1762618,1593583125.468,8187
1762619,1593583125.47,8186
1762620,1593583125.472,8186
1762621,1593583125.474,8187
1762622,1593583125.476,8187
1762623,1593583125.478,8187
1762624,1593583125.48,8187
1762625,1593583125.482,8187
1762626,1593583125.484,8187
1762627,1593583125.486,8187
1762628,1593583125.488,8187
1762629,1593583125.49,8187
1762630,1593583125.492,8187
1762631,1593583125.494,8187
1762632,1593583125.496,8187
1762633,1593583125.498,8188
1762634,1593583125.5,8188
1762635,1593583125.502,8188
1762636,1593583125.504,8187
1762637,1593583125.506,8187
1762638,1593583125.508,8187
1762639,1593583125.51,8187
1762640,1593583125.512,8187
1762641,1593583125.514,8187
1762642,1593583125.516,8188
1762643,1593583125.518,8188
1762644,1593583125.52,8187
1762645,1593583125.522,8187
1762646,1593583125.524,8187
1762647,1593583125.526,8187
1762648,1593583125.528,8187
1762649,1593583125.53,8187
1762650,1593583125.532,8187
1762651,1593583125.534,8186
1762652,1593583125.536,8186
1762653,1593583125.538,8186
1762654,1593583125.54,8186
1762655,1593583125.542,8186
1762656,1593583125.544,8185
1762657,1593583125.546,8185
1762658,1593583125.548,8185
1762659,1593583125.55,8185
1762660,1593583125.552,8186
1762661,1593583125.554,8186
1762662,1593583125.556,8187
1762663,1593583125.558,8187
1762664,1593583125.56,8187
1762665,1593583125.562,8187
1762666,1593583125.564,8187
1762667,1593583125.566,8186
1762668,1593583125.568,8186
1762669,1593583125.57,8186
1762670,1593583125.572,8186
1762671,1593583125.574,8186
1762672,1593583125.576,8186
1762673,1593583125.578,8186
1762674,1593583125.58,8186
1762675,1593583125.582,8186
1762676,1593583125.584,8186
1762677,1593583125.586,8187
1762678,1593583125.588,8187
1762679,1593583125.59,8187
1762680,1593583125.592,8187
1762681,1593583125.594,8187
1762682,1593583125.596,8187
1762683,1593583125.598,8187
1762684,1593583125.6,8187
1762685,1593583125.602,8187
1762686,1593583125.604,8186
1762687,1593583125.606,8186
1762688,1593583125.608,8186
1762689,1593583125.61,8186
1762690,1593583125.612,8186
1762691,1593583125.614,8186
1762692,1593583125.616,8186
1762693,1593583125.618,8186
1762694,1593583125.62,8187
1762695,1593583125.622,8187
1762696,1593583125.624,8188
1762697,1593583125.626,8188
1762698,1593583125.628,8188
1762699,1593583125.63,8189
1762700,1593583125.632,8190
1762701,1593583125.634,8190
1762702,1593583125.636,8192
1762703,1593583125.638,8193
1762704,1593583125.64,8194
1762705,1593583125.642,8195
1762706,1593583125.644,8196
1762707,1593583125.646,8197
1762708,1593583125.648,8198
1762709,1593583125.65,8199
1762710,1593583125.652,8199
1762711,1593583125.654,8200
1762712,1593583125.656,8202
1762713,1593583125.658,8204
1762714,1593583125.66,8207
1762715,1593583125.662,8210
1762716,1593583125.664,8212
1762717,1593583125.666,8214
1762718,1593583125.668,8216
1762719,1593583125.67,8218
1762720,1593583125.672,8219
1762721,1593583125.674,8220
1762722,1593583125.676,8220
1762723,1593583125.678,8221
1762724,1593583125.68,8221
1762725,1593583125.682,8220
1762726,1593583125.684,8219
1762727,1593583125.686,8219
1762728,1593583125.688,8218
1762729,1593583125.69,8218
1762730,1593583125.692,8217
1762731,1593583125.694,8216
1762732,1593583125.696,8214
1762733,1593583125.698,8213
1762734,1593583125.7,8213
1762735,1593583125.702,8212
1762736,1593583125.704,8212
1762737,1593583125.706,8211
1762738,1593583125.708,8211
1762739,1593583125.71,8210
1762740,1593583125.712,8209
1762741,1593583125.714,8208
1762742,1593583125.716,8207
1762743,1593583125.718,8206
1762744,1593583125.72,8205
1762745,1593583125.722,8203
1762746,1593583125.724,8200
1762747,1593583125.726,8196
1762748,1593583125.728,8193
1762749,1593583125.73,8191
1762750,1593583125.732,8188
1762751,1593583125.734,8185
1762752,1593583125.736,8182
1762753,1593583125.738,8180
1762754,1593583125.74,8178
1762755,1593583125.742,8176
1762756,1593583125.744,8175
1762757,1593583125.746,8174
1762758,1593583125.748,8173
1762759,1593583125.75,8173
1762760,1593583125.752,8173
1762761,1593583125.754,8174
1762762,1593583125.756,8174
1762763,1593583125.758,8173
1762764,1593583125.76,8172
1762765,1593583125.762,8171
1762766,1593583125.764,8170
1762767,1593583125.766,8169
1762768,1593583125.768,8169
1762769,1593583125.77,8169
1762770,1593583125.772,8169
1762771,1593583125.774,8169
1762772,1593583125.776,8168
1762773,1593583125.778,8168
1762774,1593583125.78,8168
1762775,1593583125.782,8168
1762776,1593583125.784,8168
1762777,1593583125.786,8169
1762778,1593583125.788,8169
1762779,1593583125.79,8169
1762780,1593583125.792,8169
1762781,1593583125.794,8169
1762782,1593583125.796,8169
1762783,1593583125.798,8169
1762784,1593583125.8,8169
1762785,1593583125.802,8169
1762786,1593583125.804,8169
1762787,1593583125.806,8169
1762788,1593583125.808,8169
1762789,1593583125.81,8169
1762790,1593583125.812,8169
1762791,1593583125.814,8169
1762792,1593583125.816,8169
1762793,1593583125.818,8170
1762794,1593583125.82,8170
1762795,1593583125.822,8170
1762796,1593583125.824,8170
1762797,1593583125.826,8170
1762798,1593583125.828,8169
1762799,1593583125.83,8169
1762800,1593583125.832,8169
1762801,1593583125.834,8169
1762802,1593583125.836,8169
1762803,1593583125.838,8169
1762804,1593583125.84,8170
1762805,1593583125.842,8170
1762806,1593583125.844,8170
1762807,1593583125.846,8170
1762808,1593583125.848,8170
1762809,1593583125.85,8171
1762810,1593583125.852,8172
1762811,1593583125.854,8172
1762812,1593583125.856,8172
1762813,1593583125.858,8173
1762814,1593583125.86,8173
1762815,1593583125.862,8173
1762816,1593583125.864,8173
1762817,1593583125.866,8173
1762818,1593583125.868,8173
1762819,1593583125.87,8173
1762820,1593583125.872,8173
1762821,1593583125.874,8174
1762822,1593583125.876,8174
1762823,1593583125.878,8174
1762824,1593583125.88,8174
1762825,1593583125.882,8175
1762826,1593583125.884,8176
1762827,1593583125.886,8176
1762828,1593583125.888,8177
1762829,1593583125.89,8177
1762830,1593583125.892,8178
1762831,1593583125.894,8178
1762832,1593583125.896,8178
1762833,1593583125.898,8178
1762834,1593583125.9,8178
1762835,1593583125.902,8178
1762836,1593583125.904,8179
1762837,1593583125.906,8179
1762838,1593583125.908,8179
1762839,1593583125.91,8180
1762840,1593583125.912,8180
1762841,1593583125.914,8180
1762842,1593583125.916,8181
1762843,1593583125.918,8181
1762844,1593583125.92,8181
1762845,1593583125.922,8181
1762846,1593583125.924,8181
1762847,1593583125.926,8181
1762848,1593583125.928,8181
1762849,1593583125.93,8181
1762850,1593583125.932,8182
1762851,1593583125.934,8183
1762852,1593583125.936,8185
1762853,1593583125.938,8187
1762854,1593583125.94,8189
1762855,1593583125.942,8192
1762856,1593583125.944,8195
1762857,1593583125.946,8200
1762858,1593583125.948,8205
1762859,1593583125.95,8210
1762860,1593583125.952,8216
1762861,1593583125.954,8222
1762862,1593583125.956,8228
1762863,1593583125.958,8235
1762864,1593583125.96,8241
1762865,1593583125.962,8248
1762866,1593583125.964,8254
1762867,1593583125.966,8259
1762868,1593583125.968,8262
1762869,1593583125.97,8262
1762870,1593583125.972,8258
1762871,1593583125.974,8251
1762872,1593583125.976,8242
1762873,1593583125.978,8232
1762874,1593583125.98,8220
1762875,1593583125.982,8204
1762876,1593583125.984,8184
1762877,1593583125.986,8159
1762878,1593583125.988,8134
1762879,1593583125.99,8111
1762880,1593583125.992,8092
1762881,1593583125.994,8078
1762882,1593583125.996,8069
1762883,1593583125.998,8064
1762884,1593583126.0,8061
1762885,1593583126.002,8060
1762886,1593583126.004,8061
1762887,1593583126.006,8065
1762888,1593583126.008,8070
1762889,1593583126.01,8072
1762890,1593583126.012,8072
1762891,1593583126.014,8068
1762892,1593583126.016,8062
1762893,1593583126.018,8054
1762894,1593583126.02,8044
1762895,1593583126.022,8032
1762896,1593583126.024,8020
1762897,1593583126.026,8009
1762898,1593583126.028,8000
1762899,1593583126.03,7989
1762900,1593583126.032,7975
1762901,1593583126.034,7956
1762902,1593583126.036,7932
1762903,1593583126.038,7906
1762904,1593583126.04,7882
1762905,1593583126.042,7866
1762906,1593583126.044,7860
1762907,1593583126.046,7865
1762908,1593583126.048,7880
1762909,1593583126.05,7901
1762910,1593583126.052,7926
1762911,1593583126.054,7953
1762912,1593583126.056,7981
1762913,1593583126.058,8010
1762914,1593583126.06,8041
1762915,1593583126.062,8073
1762916,1593583126.064,8104
1762917,1593583126.066,8133
1762918,1593583126.068,8158
1762919,1593583126.07,8177
1762920,1593583126.072,8191
1762921,1593583126.074,8200
1762922,1593583126.076,8206
1762923,1593583126.078,8210
1762924,1593583126.08,8213
1762925,1593583126.082,8215
1762926,1593583126.084,8216
1762927,1593583126.086,8218
1762928,1593583126.088,8219
1762929,1593583126.09,8220
1762930,1593583126.092,8221
1762931,1593583126.094,8221
1762932,1593583126.096,8221
1762933,1593583126.098,8221
1762934,1593583126.1,8220
1762935,1593583126.102,8221
1762936,1593583126.104,8221
1762937,1593583126.106,8221
1762938,1593583126.108,8221
1762939,1593583126.11,8221
1762940,1593583126.112,8221
1762941,1593583126.114,8221
1762942,1593583126.116,8221
1762943,1593583126.118,8220
1762944,1593583126.12,8220
1762945,1593583126.122,8220
1762946,1593583126.124,8220
1762947,1593583126.126,8220
1762948,1593583126.128,8220
1762949,1593583126.13,8219
1762950,1593583126.132,8219
1762951,1593583126.134,8219
1762952,1593583126.136,8219
1762953,1593583126.138,8219
1762954,1593583126.14,8219
1762955,1593583126.142,8219
1762956,1593583126.144,8218
1762957,1593583126.146,8217
1762958,1593583126.148,8217
1762959,1593583126.15,8217
1762960,1593583126.152,8217
1762961,1593583126.154,8217
1762962,1593583126.156,8217
1762963,1593583126.158,8217
1762964,1593583126.16,8217
1762965,1593583126.162,8216
1762966,1593583126.164,8215
1762967,1593583126.166,8215
1762968,1593583126.168,8215
1762969,1593583126.17,8215
1762970,1593583126.172,8215
1762971,1593583126.174,8215
1762972,1593583126.176,8215
1762973,1593583126.178,8214
1762974,1593583126.18,8214
1762975,1593583126.182,8214
1762976,1593583126.184,8214
1762977,1593583126.186,8215
1762978,1593583126.188,8215
1762979,1593583126.19,8215
1762980,1593583126.192,8215
1762981,1593583126.194,8214
1762982,1593583126.196,8214
1762983,1593583126.198,8214
1762984,1593583126.2,8214
1762985,1593583126.202,8214
1762986,1593583126.204,8215
1762987,1593583126.206,8215
1762988,1593583126.208,8215
1762989,1593583126.21,8215
1762990,1593583126.212,8214
1762991,1593583126.214,8214
1762992,1593583126.216,8215
1762993,1593583126.218,8215
1762994,1593583126.22,8216
1762995,1593583126.222,8216
1762996,1593583126.224,8217
1762997,1593583126.226,8217
1762998,1593583126.228,8217
1762999,1593583126.23,8217
1763000,1593583126.232,8218
1763001,1593583126.234,8218
1763002,1593583126.236,8218
1763003,1593583126.238,8219
1763004,1593583126.24,8220
1763005,1593583126.242,8220
1763006,1593583126.244,8221
1763007,1593583126.246,8221
1763008,1593583126.248,8222
1763009,1593583126.25,8223
1763010,1593583126.252,8224
1763011,1593583126.254,8226
1763012,1593583126.256,8227
1763013,1593583126.258,8228
1763014,1593583126.26,8229
1763015,1593583126.262,8230
1763016,1593583126.264,8231
1763017,1593583126.266,8233
1763018,1593583126.268,8234
1763019,1593583126.27,8235
1763020,1593583126.272,8237
1763021,1593583126.274,8238
1763022,1593583126.276,8239
1763023,1593583126.278,8241
1763024,1593583126.28,8242
1763025,1593583126.282,8243
1763026,1593583126.284,8244
1763027,1593583126.286,8245
1763028,1593583126.288,8247
1763029,1593583126.29,8248
1763030,1593583126.292,8250
1763031,1593583126.294,8251
1763032,1593583126.296,8253
1763033,1593583126.298,8254
1763034,1593583126.3,8256
1763035,1593583126.302,8257
1763036,1593583126.304,8258
1763037,1593583126.306,8260
1763038,1593583126.308,8262
1763039,1593583126.31,8263
1763040,1593583126.312,8265
1763041,1593583126.314,8266
1763042,1593583126.316,8267
1763043,1593583126.318,8269
1763044,1593583126.32,8270
1763045,1593583126.322,8272
1763046,1593583126.324,8273
1763047,1593583126.326,8274
1763048,1593583126.328,8275
1763049,1593583126.33,8276
1763050,1593583126.332,8277
1763051,1593583126.334,8278
1763052,1593583126.336,8279
1763053,1593583126.338,8280
1763054,1593583126.34,8281
1763055,1593583126.342,8281
1763056,1593583126.344,8280
1763057,1593583126.346,8280
1763058,1593583126.348,8279
1763059,1593583126.35,8279
1763060,1593583126.352,8278
1763061,1593583126.354,8278
1763062,1593583126.356,8277
1763063,1593583126.358,8276
1763064,1593583126.36,8275
1763065,1593583126.362,8274
1763066,1593583126.364,8273
1763067,1593583126.366,8271
1763068,1593583126.368,8269
1763069,1593583126.37,8268
1763070,1593583126.372,8266
1763071,1593583126.374,8264
1763072,1593583126.376,8262
1763073,1593583126.378,8260
1763074,1593583126.38,8258
1763075,1593583126.382,8256
1763076,1593583126.384,8254
1763077,1593583126.386,8251
1763078,1593583126.388,8249
1763079,1593583126.39,8247
1763080,1593583126.392,8246
1763081,1593583126.394,8244
1763082,1593583126.396,8242
1763083,1593583126.398,8240
1763084,1593583126.4,8237
1763085,1593583126.402,8235
1763086,1593583126.404,8232
1763087,1593583126.406,8230
1763088,1593583126.408,8228
1763089,1593583126.41,8226
1763090,1593583126.412,8224
1763091,1593583126.414,8222
1763092,1593583126.416,8220
1763093,1593583126.418,8219
1763094,1593583126.42,8217
1763095,1593583126.422,8215
1763096,1593583126.424,8213
1763097,1593583126.426,8211
1763098,1593583126.428,8209
1763099,1593583126.43,8207
1763100,1593583126.432,8206
1763101,1593583126.434,8204
1763102,1593583126.436,8203
1763103,1593583126.438,8202
1763104,1593583126.44,8202
1763105,1593583126.442,8200
1763106,1593583126.444,8199
1763107,1593583126.446,8198
1763108,1593583126.448,8197
1763109,1593583126.45,8196
1763110,1593583126.452,8195
1763111,1593583126.454,8194
1763112,1593583126.456,8194
1763113,1593583126.458,8193
1763114,1593583126.46,8193
1763115,1593583126.462,8192
1763116,1593583126.464,8192
1763117,1593583126.466,8191
1763118,1593583126.468,8191
1763119,1593583126.47,8191
1763120,1593583126.472,8191
1763121,1593583126.474,8190
1763122,1593583126.476,8190
1763123,1593583126.478,8190
1763124,1593583126.48,8189
1763125,1593583126.482,8189
1763126,1593583126.484,8189
1763127,1593583126.486,8188
1763128,1593583126.488,8188
1763129,1593583126.49,8188
1763130,1593583126.492,8188
1763131,1593583126.494,8188
1763132,1593583126.496,8187
1763133,1593583126.498,8187
1763134,1593583126.5,8186
1763135,1593583126.502,8186
1763136,1593583126.504,8186
1763137,1593583126.506,8186
1763138,1593583126.508,8186
1763139,1593583126.51,8186
1763140,1593583126.512,8186
1763141,1593583126.514,8186
1763142,1593583126.516,8186
1763143,1593583126.518,8187
1763144,1593583126.52,8188
1763145,1593583126.522,8188
1763146,1593583126.524,8188
1763147,1593583126.526,8188
1763148,1593583126.528,8188
1763149,1593583126.53,8187
1763150,1593583126.532,8187
1763151,1593583126.534,8187
1763152,1593583126.536,8187
1763153,1593583126.538,8187
1763154,1593583126.54,8187
1763155,1593583126.542,8187
1763156,1593583126.544,8187
1763157,1593583126.546,8187
1763158,1593583126.548,8187
1763159,1593583126.55,8187
1763160,1593583126.552,8187
1763161,1593583126.554,8187
1763162,1593583126.556,8187
1763163,1593583126.558,8186
1763164,1593583126.56,8186
1763165,1593583126.562,8186
1763166,1593583126.564,8186
1763167,1593583126.566,8187
1763168,1593583126.568,8187
1763169,1593583126.57,8186
1763170,1593583126.572,8186
1763171,1593583126.574,8186
1763172,1593583126.576,8187
1763173,1593583126.578,8187
1763174,1593583126.58,8186
1763175,1593583126.582,8186
1763176,1593583126.584,8186
1763177,1593583126.586,8186
1763178,1593583126.588,8187
1763179,1593583126.59,8187
1763180,1593583126.592,8187
1763181,1593583126.594,8186
1763182,1593583126.596,8186
1763183,1593583126.598,8186
1763184,1593583126.6,8185
1763185,1593583126.602,8185
1763186,1593583126.604,8185
1763187,1593583126.606,8185
1763188,1593583126.608,8185
1763189,1593583126.61,8186
1763190,1593583126.612,8186
1763191,1593583126.614,8186
1763192,1593583126.616,8186
1763193,1593583126.618,8186
1763194,1593583126.62,8186
1763195,1593583126.622,8187
1763196,1593583126.624,8187
1763197,1593583126.626,8187
1763198,1593583126.628,8187
1763199,1593583126.63,8186
1763200,1593583126.632,8186
1763201,1593583126.634,8186
1763202,1593583126.636,8186
1763203,1593583126.638,8186
1763204,1593583126.64,8186
1763205,1593583126.642,8186
1763206,1593583126.644,8186
1763207,1593583126.646,8187
1763208,1593583126.648,8187
1763209,1593583126.65,8187
1763210,1593583126.652,8187
1763211,1593583126.654,8188
1763212,1593583126.656,8188
1763213,1593583126.658,8189
1763214,1593583126.66,8189
1763215,1593583126.662,8190
1763216,1593583126.664,8190
1763217,1593583126.666,8191
1763218,1593583126.668,8192
1763219,1593583126.67,8193
1763220,1593583126.672,8194
1763221,1593583126.674,8195
1763222,1593583126.676,8196
1763223,1593583126.678,8196
1763224,1593583126.68,8198
1763225,1593583126.682,8200
1763226,1593583126.684,8203
1763227,1593583126.686,8207
1763228,1593583126.688,8211
1763229,1593583126.69,8214
1763230,1593583126.692,8216
1763231,1593583126.694,8217
1763232,1593583126.696,8217
1763233,1593583126.698,8218
1763234,1593583126.7,8219
1763235,1593583126.702,8220
1763236,1593583126.704,8222
1763237,1593583126.706,8223
1763238,1593583126.708,8223
1763239,1593583126.71,8222
1763240,1593583126.712,8220
1763241,1593583126.714,8219
1763242,1593583126.716,8218
1763243,1593583126.718,8217
1763244,1593583126.72,8216
1763245,1593583126.722,8216
1763246,1593583126.724,8215
1763247,1593583126.726,8214
1763248,1593583126.728,8214
1763249,1593583126.73,8213
1763250,1593583126.732,8213
1763251,1593583126.734,8212
1763252,1593583126.736,8212
1763253,1593583126.738,8211
1763254,1593583126.74,8209
1763255,1593583126.742,8207
1763256,1593583126.744,8205
1763257,1593583126.746,8203
1763258,1593583126.748,8200
1763259,1593583126.75,8197
1763260,1593583126.752,8194
1763261,1593583126.754,8192
1763262,1593583126.756,8189
1763263,1593583126.758,8187
1763264,1593583126.76,8184
1763265,1593583126.762,8181
1763266,1593583126.764,8178
1763267,1593583126.766,8176
1763268,1593583126.768,8175
1763269,1593583126.77,8174
1763270,1593583126.772,8173
1763271,1593583126.774,8173
1763272,1593583126.776,8173
1763273,1593583126.778,8174
1763274,1593583126.78,8174
1763275,1593583126.782,8173
1763276,1593583126.784,8173
1763277,1593583126.786,8172
1763278,1593583126.788,8172
1763279,1593583126.79,8171
1763280,1593583126.792,8171
1763281,1593583126.794,8170
1763282,1593583126.796,8170
1763283,1593583126.798,8170
1763284,1593583126.8,8169
1763285,1593583126.802,8169
1763286,1593583126.804,8170
1763287,1593583126.806,8170
1763288,1593583126.808,8170
1763289,1593583126.81,8170
1763290,1593583126.812,8169
1763291,1593583126.814,8169
1763292,1593583126.816,8169
1763293,1593583126.818,8170
1763294,1593583126.82,8170
1763295,1593583126.822,8171
1763296,1593583126.824,8171
1763297,1593583126.826,8171
1763298,1593583126.828,8170
1763299,1593583126.83,8170
1763300,1593583126.832,8169
1763301,1593583126.834,8169
1763302,1593583126.836,8170
1763303,1593583126.838,8170
1763304,1593583126.84,8170
1763305,1593583126.842,8170
1763306,1593583126.844,8170
1763307,1593583126.846,8169
1763308,1593583126.848,8169
1763309,1593583126.85,8170
1763310,1593583126.852,8171
1763311,1593583126.854,8171
1763312,1593583126.856,8171
1763313,1593583126.858,8171
1763314,1593583126.86,8171
1763315,1593583126.862,8171
1763316,1593583126.864,8171
1763317,1593583126.866,8171
1763318,1593583126.868,8172
1763319,1593583126.87,8172
1763320,1593583126.872,8172
1763321,1593583126.874,8172
1763322,1593583126.876,8172
1763323,1593583126.878,8172
1763324,1593583126.88,8172
1763325,1593583126.882,8173
1763326,1593583126.884,8173
1763327,1593583126.886,8174
1763328,1593583126.888,8175
1763329,1593583126.89,8175
1763330,1593583126.892,8175
1763331,1593583126.894,8175
1763332,1593583126.896,8175
1763333,1593583126.898,8176
1763334,1593583126.9,8176
1763335,1593583126.902,8177
1763336,1593583126.904,8177
1763337,1593583126.906,8177
1763338,1593583126.908,8177
1763339,1593583126.91,8177
1763340,1593583126.912,8178
1763341,1593583126.914,8178
1763342,1593583126.916,8179
1763343,1593583126.918,8179
1763344,1593583126.92,8179
1763345,1593583126.922,8180
1763346,1593583126.924,8180
1763347,1593583126.926,8180
1763348,1593583126.928,8180
1763349,1593583126.93,8181
1763350,1593583126.932,8181
1763351,1593583126.934,8181
1763352,1593583126.936,8181
1763353,1593583126.938,8182
1763354,1593583126.94,8182
1763355,1593583126.942,8182
1763356,1593583126.944,8182
1763357,1593583126.946,8182
1763358,1593583126.948,8182
1763359,1593583126.95,8183
1763360,1593583126.952,8184
1763361,1593583126.954,8185
1763362,1593583126.956,8186
1763363,1593583126.958,8186
1763364,1593583126.96,8186
1763365,1593583126.962,8187
1763366,1593583126.964,8187
1763367,1593583126.966,8189
1763368,1593583126.968,8191
1763369,1593583126.97,8195
1763370,1593583126.972,8199
1763371,1593583126.974,8203
1763372,1593583126.976,8208
1763373,1593583126.978,8214
1763374,1593583126.98,8219
1763375,1593583126.982,8225
1763376,1593583126.984,8232
1763377,1593583126.986,8239
1763378,1593583126.988,8246
1763379,1593583126.99,8252
1763380,1593583126.992,8258
1763381,1593583126.994,8262
1763382,1593583126.996,8264
1763383,1593583126.998,8263
1763384,1593583127.0,8259
1763385,1593583127.002,8252
1763386,1593583127.004,8243
1763387,1593583127.006,8233
1763388,1593583127.008,8219
1763389,1593583127.01,8202
1763390,1593583127.012,8179
1763391,1593583127.014,8154
1763392,1593583127.016,8129
1763393,1593583127.018,8108
1763394,1593583127.02,8091
1763395,1593583127.022,8078
1763396,1593583127.024,8070
1763397,1593583127.026,8065
1763398,1593583127.028,8062
1763399,1593583127.03,8061
1763400,1593583127.032,8063
1763401,1593583127.034,8067
1763402,1593583127.036,8071
1763403,1593583127.038,8074
1763404,1593583127.04,8074
1763405,1593583127.042,8070
1763406,1593583127.044,8064
1763407,1593583127.046,8056
1763408,1593583127.048,8044
1763409,1593583127.05,8031
1763410,1593583127.052,8018
1763411,1593583127.054,8008
1763412,1593583127.056,7999
1763413,1593583127.058,7988
1763414,1593583127.06,7973
1763415,1593583127.062,7954
1763416,1593583127.064,7930
1763417,1593583127.066,7906
1763418,1593583127.068,7883
1763419,1593583127.07,7869
1763420,1593583127.072,7865
1763421,1593583127.074,7872
1763422,1593583127.076,7888
1763423,1593583127.078,7909
1763424,1593583127.08,7934
1763425,1593583127.082,7961
1763426,1593583127.084,7988
1763427,1593583127.086,8015
1763428,1593583127.088,8044
1763429,1593583127.09,8075
1763430,1593583127.092,8106
1763431,1593583127.094,8136
1763432,1593583127.096,8162
1763433,1593583127.098,8181
1763434,1593583127.1,8195
1763435,1593583127.102,8204
1763436,1593583127.104,8209
1763437,1593583127.106,8212
1763438,1593583127.108,8214
1763439,1593583127.11,8216
1763440,1593583127.112,8217
1763441,1593583127.114,8219
1763442,1593583127.116,8220
1763443,1593583127.118,8221
1763444,1593583127.12,8222
1763445,1593583127.122,8222
1763446,1593583127.124,8222
1763447,1593583127.126,8222
1763448,1593583127.128,8222
1763449,1593583127.13,8222
1763450,1593583127.132,8223
1763451,1593583127.134,8223
1763452,1593583127.136,8222
1763453,1593583127.138,8223
1763454,1593583127.14,8223
1763455,1593583127.142,8223
1763456,1593583127.144,8222
1763457,1593583127.146,8222
1763458,1593583127.148,8222
1763459,1593583127.15,8221
1763460,1593583127.152,8221
1763461,1593583127.154,8221
1763462,1593583127.156,8221
1763463,1593583127.158,8221
1763464,1593583127.16,8220
1763465,1593583127.162,8220
1763466,1593583127.164,8220
1763467,1593583127.166,8220
1763468,1593583127.168,8220
1763469,1593583127.17,8220
1763470,1593583127.172,8220
1763471,1593583127.174,8220
1763472,1593583127.176,8219
1763473,1593583127.178,8219
1763474,1593583127.18,8219
1763475,1593583127.182,8219
1763476,1593583127.184,8219
1763477,1593583127.186,8219
1763478,1593583127.188,8219
1763479,1593583127.19,8219
1763480,1593583127.192,8219
1763481,1593583127.194,8219
1763482,1593583127.196,8219
1763483,1593583127.198,8218
1763484,1593583127.2,8218
1763485,1593583127.202,8218
1763486,1593583127.204,8218
1763487,1593583127.206,8218
1763488,1593583127.208,8217
1763489,1593583127.21,8217
1763490,1593583127.212,8217
1763491,1593583127.214,8218
1763492,1593583127.216,8218
1763493,1593583127.218,8218
1763494,1593583127.22,8217
1763495,1593583127.222,8217
1763496,1593583127.224,8218
1763497,1593583127.226,8218
1763498,1593583127.228,8217
1763499,1593583127.23,8217
1763500,1593583127.232,8217
1763501,1593583127.234,8217
1763502,1593583127.236,8217
1763503,1593583127.238,8217
1763504,1593583127.24,8217
1763505,1593583127.242,8217
1763506,1593583127.244,8218
1763507,1593583127.246,8218
1763508,1593583127.248,8219
1763509,1593583127.25,8219
1763510,1593583127.252,8220
1763511,1593583127.254,8220
1763512,1593583127.256,8221
1763513,1593583127.258,8221
1763514,1593583127.26,8221
1763515,1593583127.262,8222
1763516,1593583127.264,8222
1763517,1593583127.266,8223
1763518,1593583127.268,8223
1763519,1593583127.27,8224
1763520,1593583127.272,8225
1763521,1593583127.274,8226
1763522,1593583127.276,8227
1763523,1593583127.278,8228
1763524,1593583127.28,8229
1763525,1593583127.282,8229
1763526,1593583127.284,8230
1763527,1593583127.286,8231
1763528,1593583127.288,8232
1763529,1593583127.29,8233
1763530,1593583127.292,8234
1763531,1593583127.294,8236
1763532,1593583127.296,8237
1763533,1593583127.298,8238
1763534,1593583127.3,8239
1763535,1593583127.302,8240
1763536,1593583127.304,8241
1763537,1593583127.306,8243
1763538,1593583127.308,8244
1763539,1593583127.31,8246
1763540,1593583127.312,8247
1763541,1593583127.314,8248
1763542,1593583127.316,8250
1763543,1593583127.318,8252
1763544,1593583127.32,8253
1763545,1593583127.322,8255
1763546,1593583127.324,8256
1763547,1593583127.326,8257
1763548,1593583127.328,8258
1763549,1593583127.33,8259
1763550,1593583127.332,8261
1763551,1593583127.334,8263
1763552,1593583127.336,8265
1763553,1593583127.338,8266
1763554,1593583127.34,8268
1763555,1593583127.342,8269
1763556,1593583127.344,8270
1763557,1593583127.346,8271
1763558,1593583127.348,8272
1763559,1593583127.35,8273
1763560,1593583127.352,8275
1763561,1593583127.354,8276
1763562,1593583127.356,8277
1763563,1593583127.358,8278
1763564,1593583127.36,8278
1763565,1593583127.362,8278
1763566,1593583127.364,8278
1763567,1593583127.366,8279
1763568,1593583127.368,8279
1763569,1593583127.37,8280
1763570,1593583127.372,8280
1763571,1593583127.374,8280
1763572,1593583127.376,8280
1763573,1593583127.378,8279
1763574,1593583127.38,8279
1763575,1593583127.382,8278
1763576,1593583127.384,8277
1763577,1593583127.386,8276
1763578,1593583127.388,8275
1763579,1593583127.39,8273
1763580,1593583127.392,8271
1763581,1593583127.394,8270
1763582,1593583127.396,8268
1763583,1593583127.398,8266
1763584,1593583127.4,8264
1763585,1593583127.402,8262
1763586,1593583127.404,8260
1763587,1593583127.406,8258
1763588,1593583127.408,8256
1763589,1593583127.41,8254
1763590,1593583127.412,8252
1763591,1593583127.414,8250
1763592,1593583127.416,8247
1763593,1593583127.418,8245
1763594,1593583127.42,8242
1763595,1593583127.422,8240
1763596,1593583127.424,8238
1763597,1593583127.426,8235
1763598,1593583127.428,8233
1763599,1593583127.43,8231
1763600,1593583127.432,8229
1763601,1593583127.434,8227
1763602,1593583127.436,8225
1763603,1593583127.438,8223
1763604,1593583127.44,8221
1763605,1593583127.442,8219
1763606,1593583127.444,8217
1763607,1593583127.446,8215
1763608,1593583127.448,8213
1763609,1593583127.45,8211
1763610,1593583127.452,8210
1763611,1593583127.454,8208
1763612,1593583127.456,8206
1763613,1593583127.458,8205
1763614,1593583127.46,8203
1763615,1593583127.462,8202
1763616,1593583127.464,8200
1763617,1593583127.466,8199
1763618,1593583127.468,8198
1763619,1593583127.47,8197
1763620,1593583127.472,8196
1763621,1593583127.474,8195
1763622,1593583127.476,8194
1763623,1593583127.478,8193
1763624,1593583127.48,8193
1763625,1593583127.482,8192
1763626,1593583127.484,8191
1763627,1593583127.486,8191
1763628,1593583127.488,8191
1763629,1593583127.49,8190
1763630,1593583127.492,8190
1763631,1593583127.494,8189
1763632,1593583127.496,8188
1763633,1593583127.498,8188
1763634,1593583127.5,8188
1763635,1593583127.502,8188
1763636,1593583127.504,8188
1763637,1593583127.506,8188
1763638,1593583127.508,8188
1763639,1593583127.51,8187
1763640,1593583127.512,8187
1763641,1593583127.514,8187
1763642,1593583127.516,8187
1763643,1593583127.518,8187
1763644,1593583127.52,8187
1763645,1593583127.522,8187
1763646,1593583127.524,8186
1763647,1593583127.526,8186
1763648,1593583127.528,8186
1763649,1593583127.53,8186
1763650,1593583127.532,8185
1763651,1593583127.534,8186
1763652,1593583127.536,8186
1763653,1593583127.538,8186
1763654,1593583127.54,8186
1763655,1593583127.542,8186
1763656,1593583127.544,8186
1763657,1593583127.546,8186
1763658,1593583127.548,8186
1763659,1593583127.55,8186
1763660,1593583127.552,8186
1763661,1593583127.554,8186
1763662,1593583127.556,8186
1763663,1593583127.558,8186
1763664,1593583127.56,8186
1763665,1593583127.562,8186
1763666,1593583127.564,8186
1763667,1593583127.566,8186
1763668,1593583127.568,8186
1763669,1593583127.57,8187
1763670,1593583127.572,8187
1763671,1593583127.574,8187
1763672,1593583127.576,8187
1763673,1593583127.578,8187
1763674,1593583127.58,8187
1763675,1593583127.582,8187
1763676,1593583127.584,8187
1763677,1593583127.586,8187
1763678,1593583127.588,8187
1763679,1593583127.59,8187
1763680,1593583127.592,8187
1763681,1593583127.594,8187
1763682,1593583127.596,8187
1763683,1593583127.598,8186
1763684,1593583127.6,8186
1763685,1593583127.602,8186
1763686,1593583127.604,8185
1763687,1593583127.606,8185
1763688,1593583127.608,8185
1763689,1593583127.61,8185
1763690,1593583127.612,8185
1763691,1593583127.614,8186
1763692,1593583127.616,8186
1763693,1593583127.618,8186
1763694,1593583127.62,8186
1763695,1593583127.622,8186
1763696,1593583127.624,8186
1763697,1593583127.626,8186
1763698,1593583127.628,8186
1763699,1593583127.63,8186
1763700,1593583127.632,8186
1763701,1593583127.634,8186
1763702,1593583127.636,8186
1763703,1593583127.638,8186
1763704,1593583127.64,8186
1763705,1593583127.642,8186
1763706,1593583127.644,8186
1763707,1593583127.646,8187
1763708,1593583127.648,8188
1763709,1593583127.65,8189
1763710,1593583127.652,8189
1763711,1593583127.654,8190
1763712,1593583127.656,8190
1763713,1593583127.658,8190
1763714,1593583127.66,8191
1763715,1593583127.662,8193
1763716,1593583127.664,8195
1763717,1593583127.666,8196
1763718,1593583127.668,8197
1763719,1593583127.67,8198
1763720,1593583127.672,8200
1763721,1593583127.674,8201
1763722,1593583127.676,8204
1763723,1593583127.678,8207
1763724,1593583127.68,8211
1763725,1593583127.682,8214
1763726,1593583127.684,8216
1763727,1593583127.686,8218
1763728,1593583127.688,8219
1763729,1593583127.69,8219
1763730,1593583127.692,8220
1763731,1593583127.694,8221
1763732,1593583127.696,8222
1763733,1593583127.698,8223
1763734,1593583127.7,8223
1763735,1593583127.702,8222
1763736,1593583127.704,8221
1763737,1593583127.706,8220
1763738,1593583127.708,8219
1763739,1593583127.71,8218
1763740,1593583127.712,8217
1763741,1593583127.714,8217
1763742,1593583127.716,8216
1763743,1593583127.718,8216
1763744,1593583127.72,8215
1763745,1593583127.722,8214
1763746,1593583127.724,8213
1763747,1593583127.726,8212
1763748,1593583127.728,8211
1763749,1593583127.73,8210
1763750,1593583127.732,8209
1763751,1593583127.734,8208
1763752,1593583127.736,8205
1763753,1593583127.738,8203
1763754,1593583127.74,8200
1763755,1593583127.742,8197
1763756,1593583127.744,8194
1763757,1593583127.746,8191
1763758,1593583127.748,8188
1763759,1593583127.75,8186
1763760,1593583127.752,8183
1763761,1593583127.754,8180
1763762,1593583127.756,8178
1763763,1593583127.758,8176
1763764,1593583127.76,8175
1763765,1593583127.762,8174
1763766,1593583127.764,8173
1763767,1593583127.766,8173
1763768,1593583127.768,8173
1763769,1593583127.77,8174
1763770,1593583127.772,8174
1763771,1593583127.774,8174
1763772,1593583127.776,8174
1763773,1593583127.778,8173
1763774,1593583127.78,8172
1763775,1593583127.782,8172
1763776,1593583127.784,8171
1763777,1593583127.786,8171
1763778,1593583127.788,8170
1763779,1593583127.79,8170
1763780,1593583127.792,8170
1763781,1593583127.794,8170
1763782,1593583127.796,8170
1763783,1593583127.798,8170
1763784,1593583127.8,8170
1763785,1593583127.802,8170
1763786,1593583127.804,8170
1763787,1593583127.806,8171
1763788,1593583127.808,8171
1763789,1593583127.81,8171
1763790,1593583127.812,8170
1763791,1593583127.814,8170
1763792,1593583127.816,8170
1763793,1593583127.818,8170
1763794,1593583127.82,8171
1763795,1593583127.822,8171
1763796,1593583127.824,8171
1763797,1593583127.826,8171
1763798,1593583127.828,8171
1763799,1593583127.83,8170
1763800,1593583127.832,8170
1763801,1593583127.834,8170
1763802,1593583127.836,8171
1763803,1593583127.838,8171
1763804,1593583127.84,8171
1763805,1593583127.842,8171
1763806,1593583127.844,8170
1763807,1593583127.846,8170
1763808,1593583127.848,8170
1763809,1593583127.85,8170
1763810,1593583127.852,8171
1763811,1593583127.854,8171
1763812,1593583127.856,8171
1763813,1593583127.858,8171
1763814,1593583127.86,8171
1763815,1593583127.862,8171
1763816,1593583127.864,8171
1763817,1593583127.866,8172
1763818,1593583127.868,8172
1763819,1593583127.87,8173
1763820,1593583127.872,8173
1763821,1593583127.874,8173
1763822,1593583127.876,8173
1763823,1593583127.878,8173
1763824,1593583127.88,8173
1763825,1593583127.882,8174
1763826,1593583127.884,8175
1763827,1593583127.886,8175
1763828,1593583127.888,8175
1763829,1593583127.89,8175
1763830,1593583127.892,8175
1763831,1593583127.894,8175
1763832,1593583127.896,8175
1763833,1593583127.898,8176
1763834,1593583127.9,8176
1763835,1593583127.902,8177
1763836,1593583127.904,8177
1763837,1593583127.906,8177
1763838,1593583127.908,8177
1763839,1593583127.91,8177
1763840,1593583127.912,8177
1763841,1593583127.914,8177
1763842,1593583127.916,8178
1763843,1593583127.918,8178
1763844,1593583127.92,8179
1763845,1593583127.922,8180
1763846,1593583127.924,8180
1763847,1593583127.926,8180
1763848,1593583127.928,8180
1763849,1593583127.93,8181
1763850,1593583127.932,8181
1763851,1593583127.934,8181
1763852,1593583127.936,8182
1763853,1593583127.938,8182
1763854,1593583127.94,8182
1763855,1593583127.942,8182
1763856,1593583127.944,8182
1763857,1593583127.946,8182
1763858,1593583127.948,8182
1763859,1593583127.95,8183
1763860,1593583127.952,8184
1763861,1593583127.954,8185
1763862,1593583127.956,8186
1763863,1593583127.958,8187
1763864,1593583127.96,8189
1763865,1593583127.962,8192
1763866,1593583127.964,8196
1763867,1593583127.966,8200
1763868,1593583127.968,8205
1763869,1593583127.97,8211
1763870,1593583127.972,8217
1763871,1593583127.974,8223
1763872,1593583127.976,8229
1763873,1593583127.978,8235
1763874,1593583127.98,8241
1763875,1593583127.982,8247
1763876,1593583127.984,8253
1763877,1593583127.986,8258
1763878,1593583127.988,8261
1763879,1593583127.99,8262
1763880,1593583127.992,8259
1763881,1593583127.994,8253
1763882,1593583127.996,8244
1763883,1593583127.998,8235
1763884,1593583128.0,8223
1763885,1593583128.002,8209
1763886,1593583128.004,8189
1763887,1593583128.006,8166
1763888,1593583128.008,8141
1763889,1593583128.01,8117
1763890,1593583128.012,8097
1763891,1593583128.014,8082
1763892,1593583128.016,8071
1763893,1593583128.018,8065
1763894,1593583128.02,8062
1763895,1593583128.022,8061
1763896,1593583128.024,8062
1763897,1593583128.026,8065
1763898,1593583128.028,8069
1763899,1593583128.03,8072
1763900,1593583128.032,8072
1763901,1593583128.034,8070
1763902,1593583128.036,8064
1763903,1593583128.038,8057
1763904,1593583128.04,8046
1763905,1593583128.042,8033
1763906,1593583128.044,8020
1763907,1593583128.046,8008
1763908,1593583128.048,7999
1763909,1593583128.05,7990
1763910,1593583128.052,7978
1763911,1593583128.054,7962
1763912,1593583128.056,7939
1763913,1593583128.058,7913
1763914,1593583128.06,7889
1763915,1593583128.062,7871
1763916,1593583128.064,7863
1763917,1593583128.066,7865
1763918,1593583128.068,7877
1763919,1593583128.07,7897
1763920,1593583128.072,7921
1763921,1593583128.074,7947
1763922,1593583128.076,7974
1763923,1593583128.078,8001
1763924,1593583128.08,8031
1763925,1593583128.082,8062
1763926,1593583128.084,8094
1763927,1593583128.086,8124
1763928,1593583128.088,8150
1763929,1593583128.09,8171
1763930,1593583128.092,8187
1763931,1593583128.094,8197
1763932,1593583128.096,8204
1763933,1593583128.098,8209
1763934,1593583128.1,8212
1763935,1593583128.102,8214
1763936,1593583128.104,8216
1763937,1593583128.106,8218
1763938,1593583128.108,8219
1763939,1593583128.11,8220
1763940,1593583128.112,8220
1763941,1593583128.114,8221
1763942,1593583128.116,8221
1763943,1593583128.118,8222
1763944,1593583128.12,8222
1763945,1593583128.122,8222
1763946,1593583128.124,8222
1763947,1593583128.126,8222
1763948,1593583128.128,8222
1763949,1593583128.13,8222
1763950,1593583128.132,8221
1763951,1593583128.134,8221
1763952,1593583128.136,8221
1763953,1593583128.138,8221
1763954,1593583128.14,8221
1763955,1593583128.142,8221
1763956,1593583128.144,8220
1763957,1593583128.146,8220
1763958,1593583128.148,8220
1763959,1593583128.15,8220
1763960,1593583128.152,8220
1763961,1593583128.154,8220
1763962,1593583128.156,8220
1763963,1593583128.158,8220
1763964,1593583128.16,8220
1763965,1593583128.162,8220
1763966,1593583128.164,8219
1763967,1593583128.166,8219
1763968,1593583128.168,8219
1763969,1593583128.17,8219
1763970,1593583128.172,8219
1763971,1593583128.174,8218
1763972,1593583128.176,8218
1763973,1593583128.178,8217
1763974,1593583128.18,8217
1763975,1593583128.182,8218
1763976,1593583128.184,8217
1763977,1593583128.186,8217
1763978,1593583128.188,8217
1763979,1593583128.19,8217
1763980,1593583128.192,8217
1763981,1593583128.194,8218
1763982,1593583128.196,8218
1763983,1593583128.198,8217
1763984,1593583128.2,8217
1763985,1593583128.202,8217
1763986,1593583128.204,8217
1763987,1593583128.206,8217
1763988,1593583128.208,8217
1763989,1593583128.21,8216
1763990,1593583128.212,8216
1763991,1593583128.214,8217
1763992,1593583128.216,8217
1763993,1593583128.218,8217
1763994,1593583128.22,8217
1763995,1593583128.222,8218
1763996,1593583128.224,8218
1763997,1593583128.226,8218
1763998,1593583128.228,8218
1763999,1593583128.23,8218
1764000,1593583128.232,8218
1764001,1593583128.234,8218
1764002,1593583128.236,8219
1764003,1593583128.238,8219
1764004,1593583128.24,8220
1764005,1593583128.242,8220
1764006,1593583128.244,8219
1764007,1593583128.246,8220
1764008,1593583128.248,8220
1764009,1593583128.25,8221
1764010,1593583128.252,8222
1764011,1593583128.254,8223
1764012,1593583128.256,8223
1764013,1593583128.258,8224
1764014,1593583128.26,8224
1764015,1593583128.262,8225
1764016,1593583128.264,8225
1764017,1593583128.266,8225
1764018,1593583128.268,8226
1764019,1593583128.27,8227
1764020,1593583128.272,8229
1764021,1593583128.274,8230
1764022,1593583128.276,8231
1764023,1593583128.278,8232
1764024,1593583128.28,8233
1764025,1593583128.282,8234
1764026,1593583128.284,8235
1764027,1593583128.286,8236
1764028,1593583128.288,8238
1764029,1593583128.29,8239
1764030,1593583128.292,8240
1764031,1593583128.294,8241
1764032,1593583128.296,8242
1764033,1593583128.298,8244
1764034,1593583128.3,8245
1764035,1593583128.302,8247
1764036,1593583128.304,8248
1764037,1593583128.306,8249
1764038,1593583128.308,8251
1764039,1593583128.31,8252
1764040,1593583128.312,8253
1764041,1593583128.314,8255
1764042,1593583128.316,8257
1764043,1593583128.318,8259
1764044,1593583128.32,8261
1764045,1593583128.322,8262
1764046,1593583128.324,8264
1764047,1593583128.326,8265
1764048,1593583128.328,8266
1764049,1593583128.33,8267
1764050,1593583128.332,8269
1764051,1593583128.334,8270
1764052,1593583128.336,8272
1764053,1593583128.338,8273
1764054,1593583128.34,8275
1764055,1593583128.342,8276
1764056,1593583128.344,8277
1764057,1593583128.346,8278
1764058,1593583128.348,8279
1764059,1593583128.35,8279
1764060,1593583128.352,8280
1764061,1593583128.354,8281
1764062,1593583128.356,8281
1764063,1593583128.358,8282
1764064,1593583128.36,8282
1764065,1593583128.362,8282
1764066,1593583128.364,8282
1764067,1593583128.366,8281
1764068,1593583128.368,8281
1764069,1593583128.37,8280
1764070,1593583128.372,8280
1764071,1593583128.374,8279
1764072,1593583128.376,8278
1764073,1593583128.378,8276
1764074,1593583128.38,8274
1764075,1593583128.382,8273
1764076,1593583128.384,8271
1764077,1593583128.386,8269
1764078,1593583128.388,8268
1764079,1593583128.39,8266
1764080,1593583128.392,8265
1764081,1593583128.394,8263
1764082,1593583128.396,8261
1764083,1593583128.398,8259
1764084,1593583128.4,8256
1764085,1593583128.402,8254
1764086,1593583128.404,8251
1764087,1593583128.406,8249
1764088,1593583128.408,8246
1764089,1593583128.41,8244
1764090,1593583128.412,8242
1764091,1593583128.414,8240
1764092,1593583128.416,8238
1764093,1593583128.418,8235
1764094,1593583128.42,8233
1764095,1593583128.422,8231
1764096,1593583128.424,8228
1764097,1593583128.426,8226
1764098,1593583128.428,8223
1764099,1593583128.43,8221
1764100,1593583128.432,8219
1764101,1593583128.434,8218
1764102,1593583128.436,8216
1764103,1593583128.438,8214
1764104,1593583128.44,8212
1764105,1593583128.442,8210
1764106,1593583128.444,8208
1764107,1593583128.446,8206
1764108,1593583128.448,8204
1764109,1593583128.45,8203
1764110,1593583128.452,8201
1764111,1593583128.454,8200
1764112,1593583128.456,8199
1764113,1593583128.458,8198
1764114,1593583128.46,8196
1764115,1593583128.462,8195
1764116,1593583128.464,8194
1764117,1593583128.466,8193
1764118,1593583128.468,8192
1764119,1593583128.47,8191
1764120,1593583128.472,8190
1764121,1593583128.474,8190
1764122,1593583128.476,8189
1764123,1593583128.478,8189
1764124,1593583128.48,8188
1764125,1593583128.482,8188
1764126,1593583128.484,8187
1764127,1593583128.486,8187
1764128,1593583128.488,8187
1764129,1593583128.49,8187
1764130,1593583128.492,8186
1764131,1593583128.494,8186
1764132,1593583128.496,8186
1764133,1593583128.498,8186
1764134,1593583128.5,8186
1764135,1593583128.502,8186
1764136,1593583128.504,8186
1764137,1593583128.506,8186
1764138,1593583128.508,8185
1764139,1593583128.51,8185
1764140,1593583128.512,8185
1764141,1593583128.514,8185
1764142,1593583128.516,8184
1764143,1593583128.518,8184
1764144,1593583128.52,8184
1764145,1593583128.522,8184
1764146,1593583128.524,8184
1764147,1593583128.526,8184
1764148,1593583128.528,8185
1764149,1593583128.53,8185
1764150,1593583128.532,8184
1764151,1593583128.534,8185
1764152,1593583128.536,8185
1764153,1593583128.538,8185
1764154,1593583128.54,8184
1764155,1593583128.542,8184
1764156,1593583128.544,8184
1764157,1593583128.546,8184
1764158,1593583128.548,8184
1764159,1593583128.55,8184
1764160,1593583128.552,8184
1764161,1593583128.554,8184
1764162,1593583128.556,8184
1764163,1593583128.558,8184
1764164,1593583128.56,8184
1764165,1593583128.562,8184
1764166,1593583128.564,8184
1764167,1593583128.566,8184
1764168,1593583128.568,8184
1764169,1593583128.57,8184
1764170,1593583128.572,8184
1764171,1593583128.574,8184
1764172,1593583128.576,8183
1764173,1593583128.578,8183
1764174,1593583128.58,8183
1764175,1593583128.582,8183
1764176,1593583128.584,8183
1764177,1593583128.586,8183
1764178,1593583128.588,8183
1764179,1593583128.59,8183
1764180,1593583128.592,8183
1764181,1593583128.594,8183
1764182,1593583128.596,8183
1764183,1593583128.598,8183
1764184,1593583128.6,8183
1764185,1593583128.602,8183
1764186,1593583128.604,8184
1764187,1593583128.606,8184
1764188,1593583128.608,8183
1764189,1593583128.61,8183
1764190,1593583128.612,8183
1764191,1593583128.614,8183
1764192,1593583128.616,8183
1764193,1593583128.618,8183
1764194,1593583128.62,8183
1764195,1593583128.622,8183
1764196,1593583128.624,8184
1764197,1593583128.626,8184
1764198,1593583128.628,8184
1764199,1593583128.63,8184
1764200,1593583128.632,8184
1764201,1593583128.634,8184
1764202,1593583128.636,8184
1764203,1593583128.638,8184
1764204,1593583128.64,8183
1764205,1593583128.642,8183
1764206,1593583128.644,8183
1764207,1593583128.646,8184
1764208,1593583128.648,8183
1764209,1593583128.65,8183
1764210,1593583128.652,8183
1764211,1593583128.654,8184
1764212,1593583128.656,8184
1764213,1593583128.658,8184
1764214,1593583128.66,8184
1764215,1593583128.662,8183
1764216,1593583128.664,8183
1764217,1593583128.666,8183
1764218,1593583128.668,8183
1764219,1593583128.67,8183
1764220,1593583128.672,8183
1764221,1593583128.674,8183
1764222,1593583128.676,8183
1764223,1593583128.678,8182
1764224,1593583128.68,8182
1764225,1593583128.682,8182
1764226,1593583128.684,8182
1764227,1593583128.686,8182
1764228,1593583128.688,8183
1764229,1593583128.69,8183
1764230,1593583128.692,8183
1764231,1593583128.694,8183
1764232,1593583128.696,8183
1764233,1593583128.698,8183
1764234,1593583128.7,8183
1764235,1593583128.702,8183
1764236,1593583128.704,8183
1764237,1593583128.706,8183
1764238,1593583128.708,8183
1764239,1593583128.71,8182
1764240,1593583128.712,8182
1764241,1593583128.714,8181
1764242,1593583128.716,8181
1764243,1593583128.718,8182
1764244,1593583128.72,8182
1764245,1593583128.722,8183
1764246,1593583128.724,8183
1764247,1593583128.726,8182
1764248,1593583128.728,8182
1764249,1593583128.73,8182
1764250,1593583128.732,8181
1764251,1593583128.734,8181
1764252,1593583128.736,8181
1764253,1593583128.738,8181
1764254,1593583128.74,8181
1764255,1593583128.742,8181
1764256,1593583128.744,8180
1764257,1593583128.746,8180
1764258,1593583128.748,8180
1764259,1593583128.75,8181
1764260,1593583128.752,8181
1764261,1593583128.754,8182
1764262,1593583128.756,8182
1764263,1593583128.758,8182
1764264,1593583128.76,8183
1764265,1593583128.762,8183
1764266,1593583128.764,8183
1764267,1593583128.766,8183
1764268,1593583128.768,8183
1764269,1593583128.77,8183
1764270,1593583128.772,8183
1764271,1593583128.774,8183
1764272,1593583128.776,8183
1764273,1593583128.778,8182
1764274,1593583128.78,8182
1764275,1593583128.782,8182
1764276,1593583128.784,8183
1764277,1593583128.786,8183
1764278,1593583128.788,8183
1764279,1593583128.79,8183
1764280,1593583128.792,8183
1764281,1593583128.794,8183
1764282,1593583128.796,8183
1764283,1593583128.798,8183
1764284,1593583128.8,8183
1764285,1593583128.802,8183
1764286,1593583128.804,8184
1764287,1593583128.806,8183
1764288,1593583128.808,8183
1764289,1593583128.81,8182
1764290,1593583128.812,8183
1764291,1593583128.814,8183
1764292,1593583128.816,8183
1764293,1593583128.818,8183
1764294,1593583128.82,8183
1764295,1593583128.822,8183
1764296,1593583128.824,8183
1764297,1593583128.826,8183
1764298,1593583128.828,8183
1764299,1593583128.83,8183
1764300,1593583128.832,8183
1764301,1593583128.834,8184
1764302,1593583128.836,8184
1764303,1593583128.838,8184
1764304,1593583128.84,8183
1764305,1593583128.842,8183
1764306,1593583128.844,8183
1764307,1593583128.846,8184
1764308,1593583128.848,8184
1764309,1593583128.85,8184
1764310,1593583128.852,8184
1764311,1593583128.854,8184
1764312,1593583128.856,8184
1764313,1593583128.858,8184
1764314,1593583128.86,8185
1764315,1593583128.862,8185
1764316,1593583128.864,8185
1764317,1593583128.866,8185
1764318,1593583128.868,8185
