,times,values
1760000,1624517921.696,8201
1760001,1624517921.698,8201
1760002,1624517921.7,8202
1760003,1624517921.702,8203
1760004,1624517921.704,8204
1760005,1624517921.706,8205
1760006,1624517921.708,8206
1760007,1624517921.71,8207
1760008,1624517921.712,8207
1760009,1624517921.714,8208
1760010,1624517921.716,8208
1760011,1624517921.718,8208
1760012,1624517921.72,8207
1760013,1624517921.722,8207
1760014,1624517921.724,8207
1760015,1624517921.726,8208
1760016,1624517921.728,8208
1760017,1624517921.73,8208
1760018,1624517921.732,8208
1760019,1624517921.734,8208
1760020,1624517921.736,8207
1760021,1624517921.738,8207
1760022,1624517921.74,8207
1760023,1624517921.742,8207
1760024,1624517921.744,8207
1760025,1624517921.746,8208
1760026,1624517921.748,8209
1760027,1624517921.75,8211
1760028,1624517921.752,8213
1760029,1624517921.754,8214
1760030,1624517921.756,8217
1760031,1624517921.758,8219
1760032,1624517921.76,8222
1760033,1624517921.762,8226
1760034,1624517921.764,8229
1760035,1624517921.766,8232
1760036,1624517921.768,8235
1760037,1624517921.77,8238
1760038,1624517921.772,8240
1760039,1624517921.774,8243
1760040,1624517921.776,8245
1760041,1624517921.778,8246
1760042,1624517921.78,8245
1760043,1624517921.782,8244
1760044,1624517921.784,8242
1760045,1624517921.786,8238
1760046,1624517921.788,8234
1760047,1624517921.79,8230
1760048,1624517921.792,8226
1760049,1624517921.794,8222
1760050,1624517921.796,8219
1760051,1624517921.798,8216
1760052,1624517921.8,8212
1760053,1624517921.802,8209
1760054,1624517921.804,8205
1760055,1624517921.806,8202
1760056,1624517921.808,8199
1760057,1624517921.81,8198
1760058,1624517921.812,8197
1760059,1624517921.814,8197
1760060,1624517921.816,8197
1760061,1624517921.818,8197
1760062,1624517921.82,8197
1760063,1624517921.822,8197
1760064,1624517921.824,8197
1760065,1624517921.826,8196
1760066,1624517921.828,8196
1760067,1624517921.83,8196
1760068,1624517921.832,8196
1760069,1624517921.834,8197
1760070,1624517921.836,8197
1760071,1624517921.838,8197
1760072,1624517921.84,8197
1760073,1624517921.842,8196
1760074,1624517921.844,8196
1760075,1624517921.846,8195
1760076,1624517921.848,8195
1760077,1624517921.85,8194
1760078,1624517921.852,8193
1760079,1624517921.854,8192
1760080,1624517921.856,8189
1760081,1624517921.858,8187
1760082,1624517921.86,8185
1760083,1624517921.862,8184
1760084,1624517921.864,8187
1760085,1624517921.866,8197
1760086,1624517921.868,8217
1760087,1624517921.87,8247
1760088,1624517921.872,8287
1760089,1624517921.874,8334
1760090,1624517921.876,8385
1760091,1624517921.878,8425
1760092,1624517921.88,8429
1760093,1624517921.882,8384
1760094,1624517921.884,8303
1760095,1624517921.886,8211
1760096,1624517921.888,8131
1760097,1624517921.89,8071
1760098,1624517921.892,8033
1760099,1624517921.894,8012
1760100,1624517921.896,8000
1760101,1624517921.898,7976
1760102,1624517921.9,7929
1760103,1624517921.902,7863
1760104,1624517921.904,7798
1760105,1624517921.906,7755
1760106,1624517921.908,7751
1760107,1624517921.91,7787
1760108,1624517921.912,7858
1760109,1624517921.914,7949
1760110,1624517921.916,8039
1760111,1624517921.918,8111
1760112,1624517921.92,8160
1760113,1624517921.922,8189
1760114,1624517921.924,8202
1760115,1624517921.926,8206
1760116,1624517921.928,8206
1760117,1624517921.93,8206
1760118,1624517921.932,8206
1760119,1624517921.934,8207
1760120,1624517921.936,8208
1760121,1624517921.938,8209
1760122,1624517921.94,8210
1760123,1624517921.942,8211
1760124,1624517921.944,8211
1760125,1624517921.946,8212
1760126,1624517921.948,8212
1760127,1624517921.95,8212
1760128,1624517921.952,8213
1760129,1624517921.954,8213
1760130,1624517921.956,8213
1760131,1624517921.958,8213
1760132,1624517921.96,8214
1760133,1624517921.962,8214
1760134,1624517921.964,8214
1760135,1624517921.966,8214
1760136,1624517921.968,8214
1760137,1624517921.97,8214
1760138,1624517921.972,8214
1760139,1624517921.974,8213
1760140,1624517921.976,8213
1760141,1624517921.978,8213
1760142,1624517921.98,8213
1760143,1624517921.982,8212
1760144,1624517921.984,8212
1760145,1624517921.986,8211
1760146,1624517921.988,8211
1760147,1624517921.99,8210
1760148,1624517921.992,8210
1760149,1624517921.994,8210
1760150,1624517921.996,8209
1760151,1624517921.998,8209
1760152,1624517922.0,8208
1760153,1624517922.002,8208
1760154,1624517922.004,8207
1760155,1624517922.006,8206
1760156,1624517922.008,8205
1760157,1624517922.01,8205
1760158,1624517922.012,8204
1760159,1624517922.014,8204
1760160,1624517922.016,8203
1760161,1624517922.018,8202
1760162,1624517922.02,8202
1760163,1624517922.022,8202
1760164,1624517922.024,8201
1760165,1624517922.026,8201
1760166,1624517922.028,8201
1760167,1624517922.03,8201
1760168,1624517922.032,8200
1760169,1624517922.034,8199
1760170,1624517922.036,8198
1760171,1624517922.038,8198
1760172,1624517922.04,8197
1760173,1624517922.042,8196
1760174,1624517922.044,8196
1760175,1624517922.046,8195
1760176,1624517922.048,8195
1760177,1624517922.05,8195
1760178,1624517922.052,8194
1760179,1624517922.054,8193
1760180,1624517922.056,8193
1760181,1624517922.058,8193
1760182,1624517922.06,8192
1760183,1624517922.062,8192
1760184,1624517922.064,8193
1760185,1624517922.066,8193
1760186,1624517922.068,8193
1760187,1624517922.07,8194
1760188,1624517922.072,8195
1760189,1624517922.074,8195
1760190,1624517922.076,8195
1760191,1624517922.078,8195
1760192,1624517922.08,8196
1760193,1624517922.082,8196
1760194,1624517922.084,8197
1760195,1624517922.086,8198
1760196,1624517922.088,8198
1760197,1624517922.09,8199
1760198,1624517922.092,8200
1760199,1624517922.094,8201
1760200,1624517922.096,8201
1760201,1624517922.098,8202
1760202,1624517922.1,8203
1760203,1624517922.102,8203
1760204,1624517922.104,8204
1760205,1624517922.106,8205
1760206,1624517922.108,8205
1760207,1624517922.11,8206
1760208,1624517922.112,8207
1760209,1624517922.114,8208
1760210,1624517922.116,8209
1760211,1624517922.118,8209
1760212,1624517922.12,8210
1760213,1624517922.122,8210
1760214,1624517922.124,8211
1760215,1624517922.126,8212
1760216,1624517922.128,8213
1760217,1624517922.13,8214
1760218,1624517922.132,8214
1760219,1624517922.134,8214
1760220,1624517922.136,8214
1760221,1624517922.138,8214
1760222,1624517922.14,8214
1760223,1624517922.142,8215
1760224,1624517922.144,8215
1760225,1624517922.146,8215
1760226,1624517922.148,8215
1760227,1624517922.15,8214
1760228,1624517922.152,8214
1760229,1624517922.154,8213
1760230,1624517922.156,8213
1760231,1624517922.158,8213
1760232,1624517922.16,8213
1760233,1624517922.162,8214
1760234,1624517922.164,8214
1760235,1624517922.166,8215
1760236,1624517922.168,8215
1760237,1624517922.17,8215
1760238,1624517922.172,8215
1760239,1624517922.174,8217
1760240,1624517922.176,8219
1760241,1624517922.178,8221
1760242,1624517922.18,8223
1760243,1624517922.182,8226
1760244,1624517922.184,8229
1760245,1624517922.186,8233
1760246,1624517922.188,8236
1760247,1624517922.19,8239
1760248,1624517922.192,8242
1760249,1624517922.194,8244
1760250,1624517922.196,8246
1760251,1624517922.198,8249
1760252,1624517922.2,8250
1760253,1624517922.202,8250
1760254,1624517922.204,8249
1760255,1624517922.206,8248
1760256,1624517922.208,8247
1760257,1624517922.21,8244
1760258,1624517922.212,8240
1760259,1624517922.214,8235
1760260,1624517922.216,8231
1760261,1624517922.218,8226
1760262,1624517922.22,8222
1760263,1624517922.222,8218
1760264,1624517922.224,8214
1760265,1624517922.226,8210
1760266,1624517922.228,8207
1760267,1624517922.23,8205
1760268,1624517922.232,8204
1760269,1624517922.234,8203
1760270,1624517922.236,8202
1760271,1624517922.238,8202
1760272,1624517922.24,8202
1760273,1624517922.242,8202
1760274,1624517922.244,8202
1760275,1624517922.246,8201
1760276,1624517922.248,8201
1760277,1624517922.25,8201
1760278,1624517922.252,8201
1760279,1624517922.254,8201
1760280,1624517922.256,8201
1760281,1624517922.258,8202
1760282,1624517922.26,8202
1760283,1624517922.262,8202
1760284,1624517922.264,8202
1760285,1624517922.266,8201
1760286,1624517922.268,8201
1760287,1624517922.27,8200
1760288,1624517922.272,8200
1760289,1624517922.274,8200
1760290,1624517922.276,8199
1760291,1624517922.278,8198
1760292,1624517922.28,8195
1760293,1624517922.282,8191
1760294,1624517922.284,8187
1760295,1624517922.286,8186
1760296,1624517922.288,8191
1760297,1624517922.29,8205
1760298,1624517922.292,8229
1760299,1624517922.294,8260
1760300,1624517922.296,8298
1760301,1624517922.298,8343
1760302,1624517922.3,8390
1760303,1624517922.302,8420
1760304,1624517922.304,8407
1760305,1624517922.306,8344
1760306,1624517922.308,8252
1760307,1624517922.31,8161
1760308,1624517922.312,8090
1760309,1624517922.314,8042
1760310,1624517922.316,8013
1760311,1624517922.318,8000
1760312,1624517922.32,7990
1760313,1624517922.322,7963
1760314,1624517922.324,7912
1760315,1624517922.326,7845
1760316,1624517922.328,7783
1760317,1624517922.33,7752
1760318,1624517922.332,7764
1760319,1624517922.334,7814
1760320,1624517922.336,7894
1760321,1624517922.338,7985
1760322,1624517922.34,8066
1760323,1624517922.342,8130
1760324,1624517922.344,8173
1760325,1624517922.346,8198
1760326,1624517922.348,8210
1760327,1624517922.35,8213
1760328,1624517922.352,8212
1760329,1624517922.354,8211
1760330,1624517922.356,8211
1760331,1624517922.358,8212
1760332,1624517922.36,8213
1760333,1624517922.362,8214
1760334,1624517922.364,8215
1760335,1624517922.366,8216
1760336,1624517922.368,8216
1760337,1624517922.37,8217
1760338,1624517922.372,8217
1760339,1624517922.374,8217
1760340,1624517922.376,8217
1760341,1624517922.378,8217
1760342,1624517922.38,8217
1760343,1624517922.382,8217
1760344,1624517922.384,8217
1760345,1624517922.386,8217
1760346,1624517922.388,8217
1760347,1624517922.39,8217
1760348,1624517922.392,8217
1760349,1624517922.394,8216
1760350,1624517922.396,8216
1760351,1624517922.398,8215
1760352,1624517922.4,8215
1760353,1624517922.402,8214
1760354,1624517922.404,8214
1760355,1624517922.406,8214
1760356,1624517922.408,8214
1760357,1624517922.41,8213
1760358,1624517922.412,8212
1760359,1624517922.414,8211
1760360,1624517922.416,8211
1760361,1624517922.418,8211
1760362,1624517922.42,8211
1760363,1624517922.422,8211
1760364,1624517922.424,8210
1760365,1624517922.426,8209
1760366,1624517922.428,8208
1760367,1624517922.43,8207
1760368,1624517922.432,8207
1760369,1624517922.434,8206
1760370,1624517922.436,8206
1760371,1624517922.438,8206
1760372,1624517922.44,8206
1760373,1624517922.442,8206
1760374,1624517922.444,8205
1760375,1624517922.446,8204
1760376,1624517922.448,8203
1760377,1624517922.45,8202
1760378,1624517922.452,8201
1760379,1624517922.454,8200
1760380,1624517922.456,8199
1760381,1624517922.458,8198
1760382,1624517922.46,8198
1760383,1624517922.462,8197
1760384,1624517922.464,8197
1760385,1624517922.466,8196
1760386,1624517922.468,8196
1760387,1624517922.47,8195
1760388,1624517922.472,8194
1760389,1624517922.474,8194
1760390,1624517922.476,8194
1760391,1624517922.478,8194
1760392,1624517922.48,8193
1760393,1624517922.482,8193
1760394,1624517922.484,8192
1760395,1624517922.486,8192
1760396,1624517922.488,8193
1760397,1624517922.49,8193
1760398,1624517922.492,8194
1760399,1624517922.494,8194
1760400,1624517922.496,8194
1760401,1624517922.498,8195
1760402,1624517922.5,8195
1760403,1624517922.502,8196
1760404,1624517922.504,8197
1760405,1624517922.506,8198
1760406,1624517922.508,8198
1760407,1624517922.51,8199
1760408,1624517922.512,8200
1760409,1624517922.514,8200
1760410,1624517922.516,8201
1760411,1624517922.518,8202
1760412,1624517922.52,8203
1760413,1624517922.522,8204
1760414,1624517922.524,8204
1760415,1624517922.526,8205
1760416,1624517922.528,8205
1760417,1624517922.53,8205
1760418,1624517922.532,8206
1760419,1624517922.534,8207
1760420,1624517922.536,8207
1760421,1624517922.538,8208
1760422,1624517922.54,8210
1760423,1624517922.542,8211
1760424,1624517922.544,8211
1760425,1624517922.546,8212
1760426,1624517922.548,8212
1760427,1624517922.55,8212
1760428,1624517922.552,8212
1760429,1624517922.554,8213
1760430,1624517922.556,8214
1760431,1624517922.558,8215
1760432,1624517922.56,8215
1760433,1624517922.562,8215
1760434,1624517922.564,8215
1760435,1624517922.566,8215
1760436,1624517922.568,8215
1760437,1624517922.57,8215
1760438,1624517922.572,8215
1760439,1624517922.574,8215
1760440,1624517922.576,8215
1760441,1624517922.578,8214
1760442,1624517922.58,8214
1760443,1624517922.582,8214
1760444,1624517922.584,8215
1760445,1624517922.586,8215
1760446,1624517922.588,8216
1760447,1624517922.59,8216
1760448,1624517922.592,8217
1760449,1624517922.594,8218
1760450,1624517922.596,8219
1760451,1624517922.598,8221
1760452,1624517922.6,8223
1760453,1624517922.602,8225
1760454,1624517922.604,8227
1760455,1624517922.606,8229
1760456,1624517922.608,8232
1760457,1624517922.61,8235
1760458,1624517922.612,8239
1760459,1624517922.614,8241
1760460,1624517922.616,8244
1760461,1624517922.618,8247
1760462,1624517922.62,8249
1760463,1624517922.622,8252
1760464,1624517922.624,8252
1760465,1624517922.626,8252
1760466,1624517922.628,8250
1760467,1624517922.63,8249
1760468,1624517922.632,8246
1760469,1624517922.634,8242
1760470,1624517922.636,8238
1760471,1624517922.638,8234
1760472,1624517922.64,8230
1760473,1624517922.642,8226
1760474,1624517922.644,8222
1760475,1624517922.646,8218
1760476,1624517922.648,8215
1760477,1624517922.65,8211
1760478,1624517922.652,8208
1760479,1624517922.654,8206
1760480,1624517922.656,8204
1760481,1624517922.658,8203
1760482,1624517922.66,8202
1760483,1624517922.662,8202
1760484,1624517922.664,8202
1760485,1624517922.666,8202
1760486,1624517922.668,8202
1760487,1624517922.67,8203
1760488,1624517922.672,8203
1760489,1624517922.674,8203
1760490,1624517922.676,8203
1760491,1624517922.678,8203
1760492,1624517922.68,8203
1760493,1624517922.682,8203
1760494,1624517922.684,8203
1760495,1624517922.686,8203
1760496,1624517922.688,8202
1760497,1624517922.69,8202
1760498,1624517922.692,8201
1760499,1624517922.694,8200
1760500,1624517922.696,8200
1760501,1624517922.698,8199
1760502,1624517922.7,8197
1760503,1624517922.702,8195
1760504,1624517922.704,8191
1760505,1624517922.706,8188
1760506,1624517922.708,8185
1760507,1624517922.71,8187
1760508,1624517922.712,8195
1760509,1624517922.714,8213
1760510,1624517922.716,8242
1760511,1624517922.718,8281
1760512,1624517922.72,8328
1760513,1624517922.722,8378
1760514,1624517922.724,8419
1760515,1624517922.726,8422
1760516,1624517922.728,8374
1760517,1624517922.73,8290
1760518,1624517922.732,8197
1760519,1624517922.734,8116
1760520,1624517922.736,8056
1760521,1624517922.738,8017
1760522,1624517922.74,7996
1760523,1624517922.742,7984
1760524,1624517922.744,7963
1760525,1624517922.746,7918
1760526,1624517922.748,7854
1760527,1624517922.75,7790
1760528,1624517922.752,7748
1760529,1624517922.754,7745
1760530,1624517922.756,7784
1760531,1624517922.758,7856
1760532,1624517922.76,7949
1760533,1624517922.762,8041
1760534,1624517922.764,8114
1760535,1624517922.766,8165
1760536,1624517922.768,8194
1760537,1624517922.77,8207
1760538,1624517922.772,8212
1760539,1624517922.774,8211
1760540,1624517922.776,8210
1760541,1624517922.778,8209
1760542,1624517922.78,8210
1760543,1624517922.782,8211
1760544,1624517922.784,8212
1760545,1624517922.786,8213
1760546,1624517922.788,8214
1760547,1624517922.79,8214
1760548,1624517922.792,8214
1760549,1624517922.794,8214
1760550,1624517922.796,8215
1760551,1624517922.798,8215
1760552,1624517922.8,8216
1760553,1624517922.802,8216
1760554,1624517922.804,8216
1760555,1624517922.806,8216
1760556,1624517922.808,8216
1760557,1624517922.81,8216
1760558,1624517922.812,8216
1760559,1624517922.814,8216
1760560,1624517922.816,8216
1760561,1624517922.818,8215
1760562,1624517922.82,8215
1760563,1624517922.822,8214
1760564,1624517922.824,8214
1760565,1624517922.826,8213
1760566,1624517922.828,8212
1760567,1624517922.83,8211
1760568,1624517922.832,8211
1760569,1624517922.834,8211
1760570,1624517922.836,8211
1760571,1624517922.838,8211
1760572,1624517922.84,8210
1760573,1624517922.842,8210
1760574,1624517922.844,8209
1760575,1624517922.846,8209
1760576,1624517922.848,8208
1760577,1624517922.85,8208
1760578,1624517922.852,8208
1760579,1624517922.854,8207
1760580,1624517922.856,8205
1760581,1624517922.858,8204
1760582,1624517922.86,8204
1760583,1624517922.862,8203
1760584,1624517922.864,8203
1760585,1624517922.866,8202
1760586,1624517922.868,8202
1760587,1624517922.87,8201
1760588,1624517922.872,8201
1760589,1624517922.874,8200
1760590,1624517922.876,8199
1760591,1624517922.878,8199
1760592,1624517922.88,8198
1760593,1624517922.882,8197
1760594,1624517922.884,8196
1760595,1624517922.886,8196
1760596,1624517922.888,8195
1760597,1624517922.89,8195
1760598,1624517922.892,8194
1760599,1624517922.894,8193
1760600,1624517922.896,8193
1760601,1624517922.898,8193
1760602,1624517922.9,8192
1760603,1624517922.902,8192
1760604,1624517922.904,8191
1760605,1624517922.906,8191
1760606,1624517922.908,8191
1760607,1624517922.91,8191
1760608,1624517922.912,8192
1760609,1624517922.914,8192
1760610,1624517922.916,8192
1760611,1624517922.918,8192
1760612,1624517922.92,8192
1760613,1624517922.922,8192
1760614,1624517922.924,8193
1760615,1624517922.926,8193
1760616,1624517922.928,8194
1760617,1624517922.93,8195
1760618,1624517922.932,8195
1760619,1624517922.934,8196
1760620,1624517922.936,8196
1760621,1624517922.938,8196
1760622,1624517922.94,8197
1760623,1624517922.942,8198
1760624,1624517922.944,8199
1760625,1624517922.946,8200
1760626,1624517922.948,8200
1760627,1624517922.95,8201
1760628,1624517922.952,8201
1760629,1624517922.954,8202
1760630,1624517922.956,8204
1760631,1624517922.958,8205
1760632,1624517922.96,8206
1760633,1624517922.962,8207
1760634,1624517922.964,8208
1760635,1624517922.966,8208
1760636,1624517922.968,8209
1760637,1624517922.97,8210
1760638,1624517922.972,8211
1760639,1624517922.974,8211
1760640,1624517922.976,8212
1760641,1624517922.978,8213
1760642,1624517922.98,8214
1760643,1624517922.982,8214
1760644,1624517922.984,8214
1760645,1624517922.986,8214
1760646,1624517922.988,8214
1760647,1624517922.99,8214
1760648,1624517922.992,8214
1760649,1624517922.994,8214
1760650,1624517922.996,8215
1760651,1624517922.998,8215
1760652,1624517923.0,8215
1760653,1624517923.002,8214
1760654,1624517923.004,8214
1760655,1624517923.006,8214
1760656,1624517923.008,8214
1760657,1624517923.01,8214
1760658,1624517923.012,8215
1760659,1624517923.014,8215
1760660,1624517923.016,8216
1760661,1624517923.018,8217
1760662,1624517923.02,8218
1760663,1624517923.022,8220
1760664,1624517923.024,8221
1760665,1624517923.026,8223
1760666,1624517923.028,8226
1760667,1624517923.03,8228
1760668,1624517923.032,8231
1760669,1624517923.034,8234
1760670,1624517923.036,8236
1760671,1624517923.038,8239
1760672,1624517923.04,8242
1760673,1624517923.042,8244
1760674,1624517923.044,8246
1760675,1624517923.046,8247
1760676,1624517923.048,8247
1760677,1624517923.05,8246
1760678,1624517923.052,8245
1760679,1624517923.054,8243
1760680,1624517923.056,8239
1760681,1624517923.058,8235
1760682,1624517923.06,8231
1760683,1624517923.062,8227
1760684,1624517923.064,8224
1760685,1624517923.066,8220
1760686,1624517923.068,8216
1760687,1624517923.07,8212
1760688,1624517923.072,8208
1760689,1624517923.074,8205
1760690,1624517923.076,8203
1760691,1624517923.078,8202
1760692,1624517923.08,8200
1760693,1624517923.082,8199
1760694,1624517923.084,8199
1760695,1624517923.086,8199
1760696,1624517923.088,8199
1760697,1624517923.09,8200
1760698,1624517923.092,8200
1760699,1624517923.094,8201
1760700,1624517923.096,8201
1760701,1624517923.098,8201
1760702,1624517923.1,8201
1760703,1624517923.102,8201
1760704,1624517923.104,8200
1760705,1624517923.106,8200
1760706,1624517923.108,8201
1760707,1624517923.11,8201
1760708,1624517923.112,8201
1760709,1624517923.114,8200
1760710,1624517923.116,8200
1760711,1624517923.118,8199
1760712,1624517923.12,8199
1760713,1624517923.122,8198
1760714,1624517923.124,8197
1760715,1624517923.126,8194
1760716,1624517923.128,8190
1760717,1624517923.13,8187
1760718,1624517923.132,8187
1760719,1624517923.134,8195
1760720,1624517923.136,8212
1760721,1624517923.138,8239
1760722,1624517923.14,8276
1760723,1624517923.142,8319
1760724,1624517923.144,8365
1760725,1624517923.146,8409
1760726,1624517923.148,8429
1760727,1624517923.15,8400
1760728,1624517923.152,8323
1760729,1624517923.154,8225
1760730,1624517923.156,8134
1760731,1624517923.158,8065
1760732,1624517923.16,8019
1760733,1624517923.162,7993
1760734,1624517923.164,7981
1760735,1624517923.166,7967
1760736,1624517923.168,7934
1760737,1624517923.17,7878
1760738,1624517923.172,7813
1760739,1624517923.174,7763
1760740,1624517923.176,7750
1760741,1624517923.178,7780
1760742,1624517923.18,7847
1760743,1624517923.182,7938
1760744,1624517923.184,8030
1760745,1624517923.186,8104
1760746,1624517923.188,8154
1760747,1624517923.19,8185
1760748,1624517923.192,8201
1760749,1624517923.194,8207
1760750,1624517923.196,8208
1760751,1624517923.198,8208
1760752,1624517923.2,8207
1760753,1624517923.202,8207
1760754,1624517923.204,8208
1760755,1624517923.206,8209
1760756,1624517923.208,8210
1760757,1624517923.21,8210
1760758,1624517923.212,8211
1760759,1624517923.214,8212
1760760,1624517923.216,8212
1760761,1624517923.218,8212
1760762,1624517923.22,8212
1760763,1624517923.222,8212
1760764,1624517923.224,8212
1760765,1624517923.226,8212
1760766,1624517923.228,8212
1760767,1624517923.23,8211
1760768,1624517923.232,8211
1760769,1624517923.234,8210
1760770,1624517923.236,8210
1760771,1624517923.238,8209
1760772,1624517923.24,8209
1760773,1624517923.242,8209
1760774,1624517923.244,8209
1760775,1624517923.246,8209
1760776,1624517923.248,8208
1760777,1624517923.25,8208
1760778,1624517923.252,8207
1760779,1624517923.254,8207
1760780,1624517923.256,8206
1760781,1624517923.258,8205
1760782,1624517923.26,8205
1760783,1624517923.262,8204
1760784,1624517923.264,8204
1760785,1624517923.266,8203
1760786,1624517923.268,8203
1760787,1624517923.27,8203
1760788,1624517923.272,8202
1760789,1624517923.274,8201
1760790,1624517923.276,8200
1760791,1624517923.278,8200
1760792,1624517923.28,8199
1760793,1624517923.282,8198
1760794,1624517923.284,8198
1760795,1624517923.286,8197
1760796,1624517923.288,8196
1760797,1624517923.29,8195
1760798,1624517923.292,8194
1760799,1624517923.294,8194
1760800,1624517923.296,8193
1760801,1624517923.298,8193
1760802,1624517923.3,8193
1760803,1624517923.302,8192
1760804,1624517923.304,8192
1760805,1624517923.306,8191
1760806,1624517923.308,8190
1760807,1624517923.31,8190
1760808,1624517923.312,8189
1760809,1624517923.314,8188
1760810,1624517923.316,8187
1760811,1624517923.318,8187
1760812,1624517923.32,8186
1760813,1624517923.322,8186
1760814,1624517923.324,8186
1760815,1624517923.326,8186
1760816,1624517923.328,8186
1760817,1624517923.33,8186
1760818,1624517923.332,8186
1760819,1624517923.334,8186
1760820,1624517923.336,8186
1760821,1624517923.338,8186
1760822,1624517923.34,8187
1760823,1624517923.342,8187
1760824,1624517923.344,8187
1760825,1624517923.346,8188
1760826,1624517923.348,8188
1760827,1624517923.35,8189
1760828,1624517923.352,8190
1760829,1624517923.354,8191
1760830,1624517923.356,8192
1760831,1624517923.358,8192
1760832,1624517923.36,8193
1760833,1624517923.362,8194
1760834,1624517923.364,8194
1760835,1624517923.366,8195
1760836,1624517923.368,8196
1760837,1624517923.37,8197
1760838,1624517923.372,8198
1760839,1624517923.374,8199
1760840,1624517923.376,8200
1760841,1624517923.378,8201
1760842,1624517923.38,8202
1760843,1624517923.382,8203
1760844,1624517923.384,8204
1760845,1624517923.386,8205
1760846,1624517923.388,8205
1760847,1624517923.39,8206
1760848,1624517923.392,8207
1760849,1624517923.394,8207
1760850,1624517923.396,8208
1760851,1624517923.398,8209
1760852,1624517923.4,8209
1760853,1624517923.402,8210
1760854,1624517923.404,8210
1760855,1624517923.406,8210
1760856,1624517923.408,8210
1760857,1624517923.41,8210
1760858,1624517923.412,8210
1760859,1624517923.414,8210
1760860,1624517923.416,8211
1760861,1624517923.418,8211
1760862,1624517923.42,8211
1760863,1624517923.422,8211
1760864,1624517923.424,8211
1760865,1624517923.426,8211
1760866,1624517923.428,8211
1760867,1624517923.43,8211
1760868,1624517923.432,8211
1760869,1624517923.434,8211
1760870,1624517923.436,8212
1760871,1624517923.438,8213
1760872,1624517923.44,8214
1760873,1624517923.442,8216
1760874,1624517923.444,8218
1760875,1624517923.446,8220
1760876,1624517923.448,8222
1760877,1624517923.45,8224
1760878,1624517923.452,8227
1760879,1624517923.454,8230
1760880,1624517923.456,8233
1760881,1624517923.458,8236
1760882,1624517923.46,8239
1760883,1624517923.462,8242
1760884,1624517923.464,8245
1760885,1624517923.466,8247
1760886,1624517923.468,8248
1760887,1624517923.47,8247
1760888,1624517923.472,8246
1760889,1624517923.474,8245
1760890,1624517923.476,8242
1760891,1624517923.478,8239
1760892,1624517923.48,8235
1760893,1624517923.482,8231
1760894,1624517923.484,8226
1760895,1624517923.486,8222
1760896,1624517923.488,8218
1760897,1624517923.49,8214
1760898,1624517923.492,8210
1760899,1624517923.494,8207
1760900,1624517923.496,8204
1760901,1624517923.498,8202
1760902,1624517923.5,8200
1760903,1624517923.502,8199
1760904,1624517923.504,8199
1760905,1624517923.506,8198
1760906,1624517923.508,8198
1760907,1624517923.51,8198
1760908,1624517923.512,8198
1760909,1624517923.514,8198
1760910,1624517923.516,8199
1760911,1624517923.518,8199
1760912,1624517923.52,8200
1760913,1624517923.522,8200
1760914,1624517923.524,8199
1760915,1624517923.526,8199
1760916,1624517923.528,8199
1760917,1624517923.53,8199
1760918,1624517923.532,8199
1760919,1624517923.534,8198
1760920,1624517923.536,8198
1760921,1624517923.538,8197
1760922,1624517923.54,8197
1760923,1624517923.542,8196
1760924,1624517923.544,8195
1760925,1624517923.546,8192
1760926,1624517923.548,8189
1760927,1624517923.55,8185
1760928,1624517923.552,8183
1760929,1624517923.554,8186
1760930,1624517923.556,8196
1760931,1624517923.558,8216
1760932,1624517923.56,8245
1760933,1624517923.562,8284
1760934,1624517923.564,8329
1760935,1624517923.566,8378
1760936,1624517923.568,8416
1760937,1624517923.57,8414
1760938,1624517923.572,8359
1760939,1624517923.574,8269
1760940,1624517923.576,8175
1760941,1624517923.578,8098
1760942,1624517923.58,8045
1760943,1624517923.582,8012
1760944,1624517923.584,7994
1760945,1624517923.586,7983
1760946,1624517923.588,7960
1760947,1624517923.59,7914
1760948,1624517923.592,7850
1760949,1624517923.594,7787
1760950,1624517923.596,7751
1760951,1624517923.598,7754
1760952,1624517923.6,7795
1760953,1624517923.602,7865
1760954,1624517923.604,7955
1760955,1624517923.606,8044
1760956,1624517923.608,8115
1760957,1624517923.61,8164
1760958,1624517923.612,8192
1760959,1624517923.614,8205
1760960,1624517923.616,8208
1760961,1624517923.618,8208
1760962,1624517923.62,8207
1760963,1624517923.622,8206
1760964,1624517923.624,8207
1760965,1624517923.626,8208
1760966,1624517923.628,8209
1760967,1624517923.63,8210
1760968,1624517923.632,8211
1760969,1624517923.634,8211
1760970,1624517923.636,8212
1760971,1624517923.638,8213
1760972,1624517923.64,8214
1760973,1624517923.642,8214
1760974,1624517923.644,8214
1760975,1624517923.646,8214
1760976,1624517923.648,8214
1760977,1624517923.65,8214
1760978,1624517923.652,8214
1760979,1624517923.654,8214
1760980,1624517923.656,8214
1760981,1624517923.658,8214
1760982,1624517923.66,8214
1760983,1624517923.662,8213
1760984,1624517923.664,8213
1760985,1624517923.666,8212
1760986,1624517923.668,8212
1760987,1624517923.67,8211
1760988,1624517923.672,8211
1760989,1624517923.674,8211
1760990,1624517923.676,8211
1760991,1624517923.678,8210
1760992,1624517923.68,8209
1760993,1624517923.682,8209
1760994,1624517923.684,8208
1760995,1624517923.686,8207
1760996,1624517923.688,8207
1760997,1624517923.69,8206
1760998,1624517923.692,8206
1760999,1624517923.694,8206
1761000,1624517923.696,8205
1761001,1624517923.698,8204
1761002,1624517923.7,8203
1761003,1624517923.702,8202
1761004,1624517923.704,8202
1761005,1624517923.706,8201
1761006,1624517923.708,8200
1761007,1624517923.71,8200
1761008,1624517923.712,8199
1761009,1624517923.714,8198
1761010,1624517923.716,8198
1761011,1624517923.718,8197
1761012,1624517923.72,8196
1761013,1624517923.722,8196
1761014,1624517923.724,8196
1761015,1624517923.726,8195
1761016,1624517923.728,8194
1761017,1624517923.73,8193
1761018,1624517923.732,8192
1761019,1624517923.734,8191
1761020,1624517923.736,8191
1761021,1624517923.738,8191
1761022,1624517923.74,8190
1761023,1624517923.742,8190
1761024,1624517923.744,8190
1761025,1624517923.746,8189
1761026,1624517923.748,8189
1761027,1624517923.75,8189
1761028,1624517923.752,8189
1761029,1624517923.754,8189
1761030,1624517923.756,8189
1761031,1624517923.758,8189
1761032,1624517923.76,8189
1761033,1624517923.762,8190
1761034,1624517923.764,8191
1761035,1624517923.766,8192
1761036,1624517923.768,8192
1761037,1624517923.77,8193
1761038,1624517923.772,8193
1761039,1624517923.774,8194
1761040,1624517923.776,8194
1761041,1624517923.778,8195
1761042,1624517923.78,8196
1761043,1624517923.782,8197
1761044,1624517923.784,8198
1761045,1624517923.786,8199
1761046,1624517923.788,8200
1761047,1624517923.79,8200
1761048,1624517923.792,8201
1761049,1624517923.794,8201
1761050,1624517923.796,8202
1761051,1624517923.798,8203
1761052,1624517923.8,8204
1761053,1624517923.802,8204
1761054,1624517923.804,8205
1761055,1624517923.806,8206
1761056,1624517923.808,8207
1761057,1624517923.81,8209
1761058,1624517923.812,8209
1761059,1624517923.814,8210
1761060,1624517923.816,8211
1761061,1624517923.818,8211
1761062,1624517923.82,8211
1761063,1624517923.822,8212
1761064,1624517923.824,8212
1761065,1624517923.826,8212
1761066,1624517923.828,8213
1761067,1624517923.83,8213
1761068,1624517923.832,8213
1761069,1624517923.834,8213
1761070,1624517923.836,8213
1761071,1624517923.838,8213
1761072,1624517923.84,8213
1761073,1624517923.842,8213
1761074,1624517923.844,8213
1761075,1624517923.846,8213
1761076,1624517923.848,8213
1761077,1624517923.85,8213
1761078,1624517923.852,8213
1761079,1624517923.854,8214
1761080,1624517923.856,8214
1761081,1624517923.858,8214
1761082,1624517923.86,8216
1761083,1624517923.862,8218
1761084,1624517923.864,8220
1761085,1624517923.866,8222
1761086,1624517923.868,8224
1761087,1624517923.87,8227
1761088,1624517923.872,8230
1761089,1624517923.874,8233
1761090,1624517923.876,8236
1761091,1624517923.878,8239
1761092,1624517923.88,8242
1761093,1624517923.882,8244
1761094,1624517923.884,8246
1761095,1624517923.886,8248
1761096,1624517923.888,8249
1761097,1624517923.89,8248
1761098,1624517923.892,8247
1761099,1624517923.894,8246
1761100,1624517923.896,8243
1761101,1624517923.898,8239
1761102,1624517923.9,8235
1761103,1624517923.902,8231
1761104,1624517923.904,8227
1761105,1624517923.906,8224
1761106,1624517923.908,8221
1761107,1624517923.91,8217
1761108,1624517923.912,8213
1761109,1624517923.914,8208
1761110,1624517923.916,8205
1761111,1624517923.918,8203
1761112,1624517923.92,8202
1761113,1624517923.922,8201
1761114,1624517923.924,8201
1761115,1624517923.926,8201
1761116,1624517923.928,8201
1761117,1624517923.93,8201
1761118,1624517923.932,8200
1761119,1624517923.934,8199
1761120,1624517923.936,8199
1761121,1624517923.938,8200
1761122,1624517923.94,8200
1761123,1624517923.942,8200
1761124,1624517923.944,8200
1761125,1624517923.946,8200
1761126,1624517923.948,8200
1761127,1624517923.95,8200
1761128,1624517923.952,8200
1761129,1624517923.954,8199
1761130,1624517923.956,8199
1761131,1624517923.958,8199
1761132,1624517923.96,8199
1761133,1624517923.962,8198
1761134,1624517923.964,8196
1761135,1624517923.966,8193
1761136,1624517923.968,8190
1761137,1624517923.97,8187
1761138,1624517923.972,8185
1761139,1624517923.974,8188
1761140,1624517923.976,8198
1761141,1624517923.978,8218
1761142,1624517923.98,8248
1761143,1624517923.982,8287
1761144,1624517923.984,8333
1761145,1624517923.986,8382
1761146,1624517923.988,8421
1761147,1624517923.99,8427
1761148,1624517923.992,8383
1761149,1624517923.994,8299
1761150,1624517923.996,8205
1761151,1624517923.998,8124
1761152,1624517924.0,8066
1761153,1624517924.002,8028
1761154,1624517924.004,8008
1761155,1624517924.006,7996
1761156,1624517924.008,7973
1761157,1624517924.01,7927
1761158,1624517924.012,7865
1761159,1624517924.014,7802
1761160,1624517924.016,7758
1761161,1624517924.018,7752
1761162,1624517924.02,7785
1761163,1624517924.022,7854
1761164,1624517924.024,7945
1761165,1624517924.026,8036
1761166,1624517924.028,8110
1761167,1624517924.03,8161
1761168,1624517924.032,8191
1761169,1624517924.034,8204
1761170,1624517924.036,8208
1761171,1624517924.038,8209
1761172,1624517924.04,8208
1761173,1624517924.042,8208
1761174,1624517924.044,8208
1761175,1624517924.046,8209
1761176,1624517924.048,8209
1761177,1624517924.05,8210
1761178,1624517924.052,8211
1761179,1624517924.054,8212
1761180,1624517924.056,8212
1761181,1624517924.058,8213
1761182,1624517924.06,8213
1761183,1624517924.062,8213
1761184,1624517924.064,8213
1761185,1624517924.066,8213
1761186,1624517924.068,8213
1761187,1624517924.07,8213
1761188,1624517924.072,8213
1761189,1624517924.074,8213
1761190,1624517924.076,8213
1761191,1624517924.078,8212
1761192,1624517924.08,8212
1761193,1624517924.082,8212
1761194,1624517924.084,8212
1761195,1624517924.086,8211
1761196,1624517924.088,8211
1761197,1624517924.09,8210
1761198,1624517924.092,8210
1761199,1624517924.094,8209
1761200,1624517924.096,8209
1761201,1624517924.098,8208
1761202,1624517924.1,8207
1761203,1624517924.102,8207
1761204,1624517924.104,8206
1761205,1624517924.106,8205
1761206,1624517924.108,8204
1761207,1624517924.11,8204
1761208,1624517924.112,8203
1761209,1624517924.114,8203
1761210,1624517924.116,8202
1761211,1624517924.118,8202
1761212,1624517924.12,8201
1761213,1624517924.122,8201
1761214,1624517924.124,8200
1761215,1624517924.126,8200
1761216,1624517924.128,8199
1761217,1624517924.13,8198
1761218,1624517924.132,8198
1761219,1624517924.134,8197
1761220,1624517924.136,8197
1761221,1624517924.138,8196
1761222,1624517924.14,8195
1761223,1624517924.142,8195
1761224,1624517924.144,8195
1761225,1624517924.146,8194
1761226,1624517924.148,8194
1761227,1624517924.15,8193
1761228,1624517924.152,8192
1761229,1624517924.154,8191
1761230,1624517924.156,8190
1761231,1624517924.158,8189
1761232,1624517924.16,8189
1761233,1624517924.162,8188
1761234,1624517924.164,8188
1761235,1624517924.166,8188
1761236,1624517924.168,8188
1761237,1624517924.17,8188
1761238,1624517924.172,8188
1761239,1624517924.174,8188
1761240,1624517924.176,8188
1761241,1624517924.178,8189
1761242,1624517924.18,8189
1761243,1624517924.182,8190
1761244,1624517924.184,8191
1761245,1624517924.186,8191
1761246,1624517924.188,8192
1761247,1624517924.19,8193
1761248,1624517924.192,8193
1761249,1624517924.194,8194
1761250,1624517924.196,8195
1761251,1624517924.198,8196
1761252,1624517924.2,8197
1761253,1624517924.202,8198
1761254,1624517924.204,8199
1761255,1624517924.206,8200
1761256,1624517924.208,8200
1761257,1624517924.21,8201
1761258,1624517924.212,8202
1761259,1624517924.214,8202
1761260,1624517924.216,8203
1761261,1624517924.218,8203
1761262,1624517924.22,8204
1761263,1624517924.222,8205
1761264,1624517924.224,8207
1761265,1624517924.226,8208
1761266,1624517924.228,8209
1761267,1624517924.23,8209
1761268,1624517924.232,8210
1761269,1624517924.234,8211
1761270,1624517924.236,8211
1761271,1624517924.238,8211
1761272,1624517924.24,8212
1761273,1624517924.242,8212
1761274,1624517924.244,8212
1761275,1624517924.246,8212
1761276,1624517924.248,8212
1761277,1624517924.25,8213
1761278,1624517924.252,8213
1761279,1624517924.254,8213
1761280,1624517924.256,8213
1761281,1624517924.258,8213
1761282,1624517924.26,8213
1761283,1624517924.262,8213
1761284,1624517924.264,8213
1761285,1624517924.266,8213
1761286,1624517924.268,8213
1761287,1624517924.27,8213
1761288,1624517924.272,8213
1761289,1624517924.274,8213
1761290,1624517924.276,8213
1761291,1624517924.278,8214
1761292,1624517924.28,8215
1761293,1624517924.282,8217
1761294,1624517924.284,8219
1761295,1624517924.286,8221
1761296,1624517924.288,8224
1761297,1624517924.29,8227
1761298,1624517924.292,8230
1761299,1624517924.294,8233
1761300,1624517924.296,8236
1761301,1624517924.298,8239
1761302,1624517924.3,8241
1761303,1624517924.302,8243
1761304,1624517924.304,8246
1761305,1624517924.306,8249
1761306,1624517924.308,8249
1761307,1624517924.31,8249
1761308,1624517924.312,8247
1761309,1624517924.314,8245
1761310,1624517924.316,8242
1761311,1624517924.318,8239
1761312,1624517924.32,8235
1761313,1624517924.322,8231
1761314,1624517924.324,8227
1761315,1624517924.326,8223
1761316,1624517924.328,8219
1761317,1624517924.33,8216
1761318,1624517924.332,8211
1761319,1624517924.334,8208
1761320,1624517924.336,8205
1761321,1624517924.338,8203
1761322,1624517924.34,8202
1761323,1624517924.342,8201
1761324,1624517924.344,8201
1761325,1624517924.346,8200
1761326,1624517924.348,8200
1761327,1624517924.35,8199
1761328,1624517924.352,8199
1761329,1624517924.354,8199
1761330,1624517924.356,8200
1761331,1624517924.358,8200
1761332,1624517924.36,8200
1761333,1624517924.362,8200
1761334,1624517924.364,8199
1761335,1624517924.366,8199
1761336,1624517924.368,8200
1761337,1624517924.37,8200
1761338,1624517924.372,8200
1761339,1624517924.374,8200
1761340,1624517924.376,8199
1761341,1624517924.378,8199
1761342,1624517924.38,8198
1761343,1624517924.382,8197
1761344,1624517924.384,8195
1761345,1624517924.386,8193
1761346,1624517924.388,8189
1761347,1624517924.39,8186
1761348,1624517924.392,8185
1761349,1624517924.394,8189
1761350,1624517924.396,8202
1761351,1624517924.398,8224
1761352,1624517924.4,8256
1761353,1624517924.402,8295
1761354,1624517924.404,8339
1761355,1624517924.406,8385
1761356,1624517924.408,8420
1761357,1624517924.41,8418
1761358,1624517924.412,8365
1761359,1624517924.414,8278
1761360,1624517924.416,8188
1761361,1624517924.418,8113
1761362,1624517924.42,8060
1761363,1624517924.422,8027
1761364,1624517924.424,8010
1761365,1624517924.426,8000
1761366,1624517924.428,7977
1761367,1624517924.43,7929
1761368,1624517924.432,7862
1761369,1624517924.434,7796
1761370,1624517924.436,7756
1761371,1624517924.438,7758
1761372,1624517924.44,7800
1761373,1624517924.442,7877
1761374,1624517924.444,7969
1761375,1624517924.446,8054
1761376,1624517924.448,8120
1761377,1624517924.45,8164
1761378,1624517924.452,8191
1761379,1624517924.454,8203
1761380,1624517924.456,8208
1761381,1624517924.458,8208
1761382,1624517924.46,8208
1761383,1624517924.462,8207
1761384,1624517924.464,8207
1761385,1624517924.466,8208
1761386,1624517924.468,8209
1761387,1624517924.47,8210
1761388,1624517924.472,8211
1761389,1624517924.474,8211
1761390,1624517924.476,8212
1761391,1624517924.478,8212
1761392,1624517924.48,8213
1761393,1624517924.482,8213
1761394,1624517924.484,8213
1761395,1624517924.486,8213
1761396,1624517924.488,8213
1761397,1624517924.49,8213
1761398,1624517924.492,8213
1761399,1624517924.494,8212
1761400,1624517924.496,8212
1761401,1624517924.498,8212
1761402,1624517924.5,8211
1761403,1624517924.502,8211
1761404,1624517924.504,8210
1761405,1624517924.506,8210
1761406,1624517924.508,8210
1761407,1624517924.51,8209
1761408,1624517924.512,8209
1761409,1624517924.514,8208
1761410,1624517924.516,8208
1761411,1624517924.518,8207
1761412,1624517924.52,8207
1761413,1624517924.522,8206
1761414,1624517924.524,8206
1761415,1624517924.526,8205
1761416,1624517924.528,8204
1761417,1624517924.53,8204
1761418,1624517924.532,8204
1761419,1624517924.534,8203
1761420,1624517924.536,8202
1761421,1624517924.538,8201
1761422,1624517924.54,8200
1761423,1624517924.542,8199
1761424,1624517924.544,8198
1761425,1624517924.546,8197
1761426,1624517924.548,8197
1761427,1624517924.55,8196
1761428,1624517924.552,8196
1761429,1624517924.554,8195
1761430,1624517924.556,8195
1761431,1624517924.558,8194
1761432,1624517924.56,8194
1761433,1624517924.562,8193
1761434,1624517924.564,8192
1761435,1624517924.566,8191
1761436,1624517924.568,8190
1761437,1624517924.57,8189
1761438,1624517924.572,8188
1761439,1624517924.574,8188
1761440,1624517924.576,8187
1761441,1624517924.578,8187
1761442,1624517924.58,8186
1761443,1624517924.582,8186
1761444,1624517924.584,8185
1761445,1624517924.586,8185
1761446,1624517924.588,8184
1761447,1624517924.59,8184
1761448,1624517924.592,8184
1761449,1624517924.594,8184
1761450,1624517924.596,8185
1761451,1624517924.598,8186
1761452,1624517924.6,8187
1761453,1624517924.602,8188
1761454,1624517924.604,8189
1761455,1624517924.606,8189
1761456,1624517924.608,8190
1761457,1624517924.61,8190
1761458,1624517924.612,8190
1761459,1624517924.614,8191
1761460,1624517924.616,8192
1761461,1624517924.618,8193
1761462,1624517924.62,8194
1761463,1624517924.622,8194
1761464,1624517924.624,8195
1761465,1624517924.626,8196
1761466,1624517924.628,8196
1761467,1624517924.63,8197
1761468,1624517924.632,8198
1761469,1624517924.634,8199
1761470,1624517924.636,8200
1761471,1624517924.638,8200
1761472,1624517924.64,8201
1761473,1624517924.642,8202
1761474,1624517924.644,8203
1761475,1624517924.646,8203
1761476,1624517924.648,8204
1761477,1624517924.65,8206
1761478,1624517924.652,8207
1761479,1624517924.654,8208
1761480,1624517924.656,8209
1761481,1624517924.658,8210
1761482,1624517924.66,8210
1761483,1624517924.662,8211
1761484,1624517924.664,8211
1761485,1624517924.666,8211
1761486,1624517924.668,8212
1761487,1624517924.67,8212
1761488,1624517924.672,8212
1761489,1624517924.674,8212
1761490,1624517924.676,8212
1761491,1624517924.678,8212
1761492,1624517924.68,8212
1761493,1624517924.682,8212
1761494,1624517924.684,8212
1761495,1624517924.686,8212
1761496,1624517924.688,8212
1761497,1624517924.69,8212
1761498,1624517924.692,8213
1761499,1624517924.694,8213
1761500,1624517924.696,8213
1761501,1624517924.698,8214
1761502,1624517924.7,8216
1761503,1624517924.702,8218
1761504,1624517924.704,8220
1761505,1624517924.706,8222
1761506,1624517924.708,8224
1761507,1624517924.71,8225
1761508,1624517924.712,8228
1761509,1624517924.714,8231
1761510,1624517924.716,8234
1761511,1624517924.718,8236
1761512,1624517924.72,8239
1761513,1624517924.722,8241
1761514,1624517924.724,8244
1761515,1624517924.726,8245
1761516,1624517924.728,8246
1761517,1624517924.73,8245
1761518,1624517924.732,8244
1761519,1624517924.734,8242
1761520,1624517924.736,8240
1761521,1624517924.738,8236
1761522,1624517924.74,8232
1761523,1624517924.742,8228
1761524,1624517924.744,8224
1761525,1624517924.746,8220
1761526,1624517924.748,8217
1761527,1624517924.75,8213
1761528,1624517924.752,8210
1761529,1624517924.754,8206
1761530,1624517924.756,8203
1761531,1624517924.758,8201
1761532,1624517924.76,8200
1761533,1624517924.762,8199
1761534,1624517924.764,8199
1761535,1624517924.766,8199
1761536,1624517924.768,8199
1761537,1624517924.77,8199
1761538,1624517924.772,8199
1761539,1624517924.774,8199
1761540,1624517924.776,8199
1761541,1624517924.778,8199
1761542,1624517924.78,8199
1761543,1624517924.782,8199
1761544,1624517924.784,8199
1761545,1624517924.786,8199
1761546,1624517924.788,8199
1761547,1624517924.79,8199
1761548,1624517924.792,8199
1761549,1624517924.794,8199
1761550,1624517924.796,8199
1761551,1624517924.798,8198
1761552,1624517924.8,8198
1761553,1624517924.802,8196
1761554,1624517924.804,8195
1761555,1624517924.806,8192
1761556,1624517924.808,8188
1761557,1624517924.81,8185
1761558,1624517924.812,8185
1761559,1624517924.814,8189
1761560,1624517924.816,8201
1761561,1624517924.818,8223
1761562,1624517924.82,8256
1761563,1624517924.822,8298
1761564,1624517924.824,8347
1761565,1624517924.826,8396
1761566,1624517924.828,8429
1761567,1624517924.83,8416
1761568,1624517924.832,8352
1761569,1624517924.834,8258
1761570,1624517924.836,8166
1761571,1624517924.838,8093
1761572,1624517924.84,8043
1761573,1624517924.842,8011
1761574,1624517924.844,7994
1761575,1624517924.846,7979
1761576,1624517924.848,7949
1761577,1624517924.85,7896
1761578,1624517924.852,7830
1761579,1624517924.854,7773
1761580,1624517924.856,7749
1761581,1624517924.858,7766
1761582,1624517924.86,7817
1761583,1624517924.862,7895
1761584,1624517924.864,7985
1761585,1624517924.866,8068
1761586,1624517924.868,8131
1761587,1624517924.87,8173
1761588,1624517924.872,8196
1761589,1624517924.874,8206
1761590,1624517924.876,8208
1761591,1624517924.878,8208
1761592,1624517924.88,8207
1761593,1624517924.882,8206
1761594,1624517924.884,8206
1761595,1624517924.886,8207
1761596,1624517924.888,8208
1761597,1624517924.89,8209
1761598,1624517924.892,8210
1761599,1624517924.894,8211
1761600,1624517924.896,8212
1761601,1624517924.898,8212
1761602,1624517924.9,8213
1761603,1624517924.902,8213
1761604,1624517924.904,8213
1761605,1624517924.906,8212
1761606,1624517924.908,8212
1761607,1624517924.91,8212
1761608,1624517924.912,8212
1761609,1624517924.914,8212
1761610,1624517924.916,8211
1761611,1624517924.918,8211
1761612,1624517924.92,8210
1761613,1624517924.922,8210
1761614,1624517924.924,8209
1761615,1624517924.926,8208
1761616,1624517924.928,8208
1761617,1624517924.93,8208
1761618,1624517924.932,8207
1761619,1624517924.934,8207
1761620,1624517924.936,8206
1761621,1624517924.938,8206
1761622,1624517924.94,8206
1761623,1624517924.942,8206
1761624,1624517924.944,8205
1761625,1624517924.946,8204
1761626,1624517924.948,8203
1761627,1624517924.95,8202
1761628,1624517924.952,8202
1761629,1624517924.954,8201
1761630,1624517924.956,8201
1761631,1624517924.958,8200
1761632,1624517924.96,8199
1761633,1624517924.962,8198
1761634,1624517924.964,8197
1761635,1624517924.966,8197
1761636,1624517924.968,8197
1761637,1624517924.97,8196
1761638,1624517924.972,8196
1761639,1624517924.974,8195
1761640,1624517924.976,8194
1761641,1624517924.978,8193
1761642,1624517924.98,8192
1761643,1624517924.982,8191
1761644,1624517924.984,8190
1761645,1624517924.986,8189
1761646,1624517924.988,8189
1761647,1624517924.99,8188
1761648,1624517924.992,8187
1761649,1624517924.994,8187
1761650,1624517924.996,8186
1761651,1624517924.998,8185
1761652,1624517925.0,8184
1761653,1624517925.002,8184
1761654,1624517925.004,8183
1761655,1624517925.006,8183
1761656,1624517925.008,8182
1761657,1624517925.01,8182
1761658,1624517925.012,8182
1761659,1624517925.014,8182
1761660,1624517925.016,8183
1761661,1624517925.018,8184
1761662,1624517925.02,8184
1761663,1624517925.022,8185
1761664,1624517925.024,8185
1761665,1624517925.026,8186
1761666,1624517925.028,8186
1761667,1624517925.03,8187
1761668,1624517925.032,8188
1761669,1624517925.034,8188
1761670,1624517925.036,8189
1761671,1624517925.038,8190
1761672,1624517925.04,8190
1761673,1624517925.042,8191
1761674,1624517925.044,8191
1761675,1624517925.046,8192
1761676,1624517925.048,8193
1761677,1624517925.05,8194
1761678,1624517925.052,8195
1761679,1624517925.054,8196
1761680,1624517925.056,8197
1761681,1624517925.058,8198
1761682,1624517925.06,8199
1761683,1624517925.062,8201
1761684,1624517925.064,8202
1761685,1624517925.066,8203
1761686,1624517925.068,8205
1761687,1624517925.07,8206
1761688,1624517925.072,8207
1761689,1624517925.074,8208
1761690,1624517925.076,8209
1761691,1624517925.078,8210
1761692,1624517925.08,8210
1761693,1624517925.082,8211
1761694,1624517925.084,8211
1761695,1624517925.086,8212
1761696,1624517925.088,8213
1761697,1624517925.09,8213
1761698,1624517925.092,8213
1761699,1624517925.094,8213
1761700,1624517925.096,8213
1761701,1624517925.098,8213
1761702,1624517925.1,8213
1761703,1624517925.102,8213
1761704,1624517925.104,8213
1761705,1624517925.106,8213
1761706,1624517925.108,8213
1761707,1624517925.11,8213
1761708,1624517925.112,8214
1761709,1624517925.114,8214
1761710,1624517925.116,8215
1761711,1624517925.118,8216
1761712,1624517925.12,8218
1761713,1624517925.122,8219
1761714,1624517925.124,8221
1761715,1624517925.126,8223
1761716,1624517925.128,8225
1761717,1624517925.13,8227
1761718,1624517925.132,8230
1761719,1624517925.134,8233
1761720,1624517925.136,8236
1761721,1624517925.138,8238
1761722,1624517925.14,8241
1761723,1624517925.142,8243
1761724,1624517925.144,8245
1761725,1624517925.146,8246
1761726,1624517925.148,8246
1761727,1624517925.15,8246
1761728,1624517925.152,8246
1761729,1624517925.154,8244
1761730,1624517925.156,8241
1761731,1624517925.158,8237
1761732,1624517925.16,8232
1761733,1624517925.162,8229
1761734,1624517925.164,8225
1761735,1624517925.166,8221
1761736,1624517925.168,8217
1761737,1624517925.17,8213
1761738,1624517925.172,8209
1761739,1624517925.174,8206
1761740,1624517925.176,8204
1761741,1624517925.178,8202
1761742,1624517925.18,8202
1761743,1624517925.182,8202
1761744,1624517925.184,8202
1761745,1624517925.186,8202
1761746,1624517925.188,8202
1761747,1624517925.19,8202
1761748,1624517925.192,8201
1761749,1624517925.194,8200
1761750,1624517925.196,8200
1761751,1624517925.198,8201
1761752,1624517925.2,8201
1761753,1624517925.202,8201
1761754,1624517925.204,8201
1761755,1624517925.206,8201
1761756,1624517925.208,8201
1761757,1624517925.21,8201
1761758,1624517925.212,8201
1761759,1624517925.214,8201
1761760,1624517925.216,8201
1761761,1624517925.218,8201
1761762,1624517925.22,8200
1761763,1624517925.222,8199
1761764,1624517925.224,8197
1761765,1624517925.226,8193
1761766,1624517925.228,8190
1761767,1624517925.23,8187
1761768,1624517925.232,8189
1761769,1624517925.234,8197
1761770,1624517925.236,8215
1761771,1624517925.238,8244
1761772,1624517925.24,8282
1761773,1624517925.242,8328
1761774,1624517925.244,8379
1761775,1624517925.246,8421
1761776,1624517925.248,8430
1761777,1624517925.25,8388
1761778,1624517925.252,8308
1761779,1624517925.254,8217
1761780,1624517925.256,8134
1761781,1624517925.258,8070
1761782,1624517925.26,8027
1761783,1624517925.262,8001
1761784,1624517925.264,7986
1761785,1624517925.266,7963
1761786,1624517925.268,7919
1761787,1624517925.27,7859
1761788,1624517925.272,7797
1761789,1624517925.274,7756
1761790,1624517925.276,7751
1761791,1624517925.278,7787
1761792,1624517925.28,7857
1761793,1624517925.282,7947
1761794,1624517925.284,8038
1761795,1624517925.286,8112
1761796,1624517925.288,8163
1761797,1624517925.29,8192
1761798,1624517925.292,8206
1761799,1624517925.294,8210
1761800,1624517925.296,8209
1761801,1624517925.298,8208
1761802,1624517925.3,8208
1761803,1624517925.302,8208
1761804,1624517925.304,8209
1761805,1624517925.306,8209
1761806,1624517925.308,8210
1761807,1624517925.31,8211
1761808,1624517925.312,8212
1761809,1624517925.314,8212
1761810,1624517925.316,8213
1761811,1624517925.318,8214
1761812,1624517925.32,8214
1761813,1624517925.322,8213
1761814,1624517925.324,8214
1761815,1624517925.326,8214
1761816,1624517925.328,8214
1761817,1624517925.33,8214
1761818,1624517925.332,8214
1761819,1624517925.334,8213
1761820,1624517925.336,8213
1761821,1624517925.338,8212
1761822,1624517925.34,8212
1761823,1624517925.342,8212
1761824,1624517925.344,8212
1761825,1624517925.346,8211
1761826,1624517925.348,8211
1761827,1624517925.35,8210
1761828,1624517925.352,8210
1761829,1624517925.354,8209
1761830,1624517925.356,8209
1761831,1624517925.358,8209
1761832,1624517925.36,8208
1761833,1624517925.362,8208
1761834,1624517925.364,8207
1761835,1624517925.366,8206
1761836,1624517925.368,8206
1761837,1624517925.37,8205
1761838,1624517925.372,8205
1761839,1624517925.374,8204
1761840,1624517925.376,8203
1761841,1624517925.378,8202
1761842,1624517925.38,8202
1761843,1624517925.382,8201
1761844,1624517925.384,8200
1761845,1624517925.386,8199
1761846,1624517925.388,8198
1761847,1624517925.39,8198
1761848,1624517925.392,8197
1761849,1624517925.394,8197
1761850,1624517925.396,8196
1761851,1624517925.398,8196
1761852,1624517925.4,8195
1761853,1624517925.402,8194
1761854,1624517925.404,8193
1761855,1624517925.406,8193
1761856,1624517925.408,8192
1761857,1624517925.41,8191
1761858,1624517925.412,8189
1761859,1624517925.414,8188
1761860,1624517925.416,8187
1761861,1624517925.418,8187
1761862,1624517925.42,8186
1761863,1624517925.422,8185
1761864,1624517925.424,8185
1761865,1624517925.426,8185
1761866,1624517925.428,8184
1761867,1624517925.43,8184
1761868,1624517925.432,8184
1761869,1624517925.434,8185
1761870,1624517925.436,8185
1761871,1624517925.438,8186
1761872,1624517925.44,8187
1761873,1624517925.442,8188
1761874,1624517925.444,8188
1761875,1624517925.446,8189
1761876,1624517925.448,8189
1761877,1624517925.45,8190
1761878,1624517925.452,8191
1761879,1624517925.454,8192
1761880,1624517925.456,8192
1761881,1624517925.458,8193
1761882,1624517925.46,8194
1761883,1624517925.462,8195
1761884,1624517925.464,8196
1761885,1624517925.466,8196
1761886,1624517925.468,8197
1761887,1624517925.47,8197
1761888,1624517925.472,8198
1761889,1624517925.474,8200
1761890,1624517925.476,8202
1761891,1624517925.478,8203
1761892,1624517925.48,8204
1761893,1624517925.482,8205
1761894,1624517925.484,8206
1761895,1624517925.486,8207
1761896,1624517925.488,8208
1761897,1624517925.49,8209
1761898,1624517925.492,8210
1761899,1624517925.494,8210
1761900,1624517925.496,8211
1761901,1624517925.498,8212
1761902,1624517925.5,8212
1761903,1624517925.502,8213
1761904,1624517925.504,8214
1761905,1624517925.506,8214
1761906,1624517925.508,8215
1761907,1624517925.51,8215
1761908,1624517925.512,8215
1761909,1624517925.514,8214
1761910,1624517925.516,8214
1761911,1624517925.518,8214
1761912,1624517925.52,8214
1761913,1624517925.522,8214
1761914,1624517925.524,8215
1761915,1624517925.526,8215
1761916,1624517925.528,8215
1761917,1624517925.53,8215
1761918,1624517925.532,8215
1761919,1624517925.534,8216
1761920,1624517925.536,8217
1761921,1624517925.538,8219
1761922,1624517925.54,8221
1761923,1624517925.542,8223
1761924,1624517925.544,8225
1761925,1624517925.546,8227
1761926,1624517925.548,8230
1761927,1624517925.55,8233
1761928,1624517925.552,8236
1761929,1624517925.554,8239
1761930,1624517925.556,8241
1761931,1624517925.558,8244
1761932,1624517925.56,8246
1761933,1624517925.562,8248
1761934,1624517925.564,8249
1761935,1624517925.566,8249
1761936,1624517925.568,8248
1761937,1624517925.57,8247
1761938,1624517925.572,8245
1761939,1624517925.574,8241
1761940,1624517925.576,8237
1761941,1624517925.578,8234
1761942,1624517925.58,8230
1761943,1624517925.582,8226
1761944,1624517925.584,8222
1761945,1624517925.586,8219
1761946,1624517925.588,8215
1761947,1624517925.59,8211
1761948,1624517925.592,8208
1761949,1624517925.594,8206
1761950,1624517925.596,8204
1761951,1624517925.598,8203
1761952,1624517925.6,8203
1761953,1624517925.602,8203
1761954,1624517925.604,8203
1761955,1624517925.606,8203
1761956,1624517925.608,8202
1761957,1624517925.61,8202
1761958,1624517925.612,8202
1761959,1624517925.614,8202
1761960,1624517925.616,8202
1761961,1624517925.618,8202
1761962,1624517925.62,8202
1761963,1624517925.622,8202
1761964,1624517925.624,8202
1761965,1624517925.626,8202
1761966,1624517925.628,8202
1761967,1624517925.63,8203
1761968,1624517925.632,8203
1761969,1624517925.634,8203
1761970,1624517925.636,8202
1761971,1624517925.638,8201
1761972,1624517925.64,8200
1761973,1624517925.642,8197
1761974,1624517925.644,8194
1761975,1624517925.646,8190
1761976,1624517925.648,8188
1761977,1624517925.65,8190
1761978,1624517925.652,8199
1761979,1624517925.654,8217
1761980,1624517925.656,8246
1761981,1624517925.658,8284
1761982,1624517925.66,8330
1761983,1624517925.662,8379
1761984,1624517925.664,8420
1761985,1624517925.666,8432
1761986,1624517925.668,8394
1761987,1624517925.67,8313
1761988,1624517925.672,8218
1761989,1624517925.674,8134
1761990,1624517925.676,8071
1761991,1624517925.678,8030
1761992,1624517925.68,8007
1761993,1624517925.682,7994
1761994,1624517925.684,7975
1761995,1624517925.686,7936
1761996,1624517925.688,7878
1761997,1624517925.69,7813
1761998,1624517925.692,7765
1761999,1624517925.694,7753
1762000,1624517925.696,7783
1762001,1624517925.698,7849
1762002,1624517925.7,7939
1762003,1624517925.702,8032
1762004,1624517925.704,8108
1762005,1624517925.706,8161
1762006,1624517925.708,8191
1762007,1624517925.71,8205
1762008,1624517925.712,8210
1762009,1624517925.714,8210
1762010,1624517925.716,8210
1762011,1624517925.718,8210
1762012,1624517925.72,8210
1762013,1624517925.722,8211
1762014,1624517925.724,8212
1762015,1624517925.726,8213
1762016,1624517925.728,8214
1762017,1624517925.73,8214
1762018,1624517925.732,8215
1762019,1624517925.734,8215
1762020,1624517925.736,8216
1762021,1624517925.738,8217
1762022,1624517925.74,8217
1762023,1624517925.742,8217
1762024,1624517925.744,8217
1762025,1624517925.746,8216
1762026,1624517925.748,8216
1762027,1624517925.75,8215
1762028,1624517925.752,8215
1762029,1624517925.754,8215
1762030,1624517925.756,8215
1762031,1624517925.758,8215
1762032,1624517925.76,8214
1762033,1624517925.762,8214
1762034,1624517925.764,8213
1762035,1624517925.766,8212
1762036,1624517925.768,8212
1762037,1624517925.77,8212
1762038,1624517925.772,8212
1762039,1624517925.774,8211
1762040,1624517925.776,8210
1762041,1624517925.778,8209
1762042,1624517925.78,8209
1762043,1624517925.782,8208
1762044,1624517925.784,8207
1762045,1624517925.786,8207
1762046,1624517925.788,8206
1762047,1624517925.79,8206
1762048,1624517925.792,8206
1762049,1624517925.794,8205
1762050,1624517925.796,8205
1762051,1624517925.798,8204
1762052,1624517925.8,8203
1762053,1624517925.802,8202
1762054,1624517925.804,8201
1762055,1624517925.806,8200
1762056,1624517925.808,8200
1762057,1624517925.81,8199
1762058,1624517925.812,8198
1762059,1624517925.814,8197
1762060,1624517925.816,8196
1762061,1624517925.818,8196
1762062,1624517925.82,8195
1762063,1624517925.822,8194
1762064,1624517925.824,8194
1762065,1624517925.826,8193
1762066,1624517925.828,8193
1762067,1624517925.83,8192
1762068,1624517925.832,8191
1762069,1624517925.834,8190
1762070,1624517925.836,8190
1762071,1624517925.838,8190
1762072,1624517925.84,8189
1762073,1624517925.842,8188
1762074,1624517925.844,8188
1762075,1624517925.846,8188
1762076,1624517925.848,8188
1762077,1624517925.85,8188
1762078,1624517925.852,8188
1762079,1624517925.854,8188
1762080,1624517925.856,8188
1762081,1624517925.858,8189
1762082,1624517925.86,8190
1762083,1624517925.862,8191
1762084,1624517925.864,8191
1762085,1624517925.866,8192
1762086,1624517925.868,8193
1762087,1624517925.87,8194
1762088,1624517925.872,8195
1762089,1624517925.874,8196
1762090,1624517925.876,8196
1762091,1624517925.878,8197
1762092,1624517925.88,8198
1762093,1624517925.882,8199
1762094,1624517925.884,8200
1762095,1624517925.886,8201
1762096,1624517925.888,8202
1762097,1624517925.89,8203
1762098,1624517925.892,8204
1762099,1624517925.894,8204
1762100,1624517925.896,8205
1762101,1624517925.898,8206
1762102,1624517925.9,8207
1762103,1624517925.902,8208
1762104,1624517925.904,8209
1762105,1624517925.906,8210
1762106,1624517925.908,8211
1762107,1624517925.91,8212
1762108,1624517925.912,8213
1762109,1624517925.914,8213
1762110,1624517925.916,8213
1762111,1624517925.918,8214
1762112,1624517925.92,8214
1762113,1624517925.922,8215
1762114,1624517925.924,8216
1762115,1624517925.926,8217
1762116,1624517925.928,8217
1762117,1624517925.93,8217
1762118,1624517925.932,8217
1762119,1624517925.934,8217
1762120,1624517925.936,8217
1762121,1624517925.938,8217
1762122,1624517925.94,8216
1762123,1624517925.942,8216
1762124,1624517925.944,8216
1762125,1624517925.946,8216
1762126,1624517925.948,8215
1762127,1624517925.95,8215
1762128,1624517925.952,8216
1762129,1624517925.954,8218
1762130,1624517925.956,8220
1762131,1624517925.958,8222
1762132,1624517925.96,8225
1762133,1624517925.962,8227
1762134,1624517925.964,8229
1762135,1624517925.966,8231
1762136,1624517925.968,8234
1762137,1624517925.97,8237
1762138,1624517925.972,8240
1762139,1624517925.974,8243
1762140,1624517925.976,8245
1762141,1624517925.978,8247
1762142,1624517925.98,8249
1762143,1624517925.982,8250
1762144,1624517925.984,8250
1762145,1624517925.986,8250
1762146,1624517925.988,8249
1762147,1624517925.99,8247
1762148,1624517925.992,8244
1762149,1624517925.994,8241
1762150,1624517925.996,8237
1762151,1624517925.998,8232
1762152,1624517926.0,8227
1762153,1624517926.002,8223
1762154,1624517926.004,8219
1762155,1624517926.006,8215
1762156,1624517926.008,8211
1762157,1624517926.01,8208
1762158,1624517926.012,8207
1762159,1624517926.014,8205
1762160,1624517926.016,8204
1762161,1624517926.018,8204
1762162,1624517926.02,8204
1762163,1624517926.022,8204
1762164,1624517926.024,8203
1762165,1624517926.026,8203
1762166,1624517926.028,8204
1762167,1624517926.03,8204
1762168,1624517926.032,8204
1762169,1624517926.034,8204
1762170,1624517926.036,8203
1762171,1624517926.038,8203
1762172,1624517926.04,8203
1762173,1624517926.042,8203
1762174,1624517926.044,8203
1762175,1624517926.046,8203
1762176,1624517926.048,8203
1762177,1624517926.05,8203
1762178,1624517926.052,8203
1762179,1624517926.054,8203
1762180,1624517926.056,8202
1762181,1624517926.058,8200
1762182,1624517926.06,8198
1762183,1624517926.062,8195
1762184,1624517926.064,8191
1762185,1624517926.066,8190
1762186,1624517926.068,8193
1762187,1624517926.07,8204
1762188,1624517926.072,8225
1762189,1624517926.074,8255
1762190,1624517926.076,8291
1762191,1624517926.078,8334
1762192,1624517926.08,8380
1762193,1624517926.082,8418
1762194,1624517926.084,8421
1762195,1624517926.086,8372
1762196,1624517926.088,8285
1762197,1624517926.09,8192
1762198,1624517926.092,8114
1762199,1624517926.094,8057
1762200,1624517926.096,8022
1762201,1624517926.098,8004
1762202,1624517926.1,7994
1762203,1624517926.102,7974
1762204,1624517926.104,7930
1762205,1624517926.106,7866
1762206,1624517926.108,7801
1762207,1624517926.11,7760
1762208,1624517926.112,7760
1762209,1624517926.114,7801
1762210,1624517926.116,7875
1762211,1624517926.118,7967
1762212,1624517926.12,8054
1762213,1624517926.122,8121
1762214,1624517926.124,8166
1762215,1624517926.126,8194
1762216,1624517926.128,8208
1762217,1624517926.13,8212
1762218,1624517926.132,8213
1762219,1624517926.134,8212
1762220,1624517926.136,8211
1762221,1624517926.138,8211
1762222,1624517926.14,8212
1762223,1624517926.142,8213
1762224,1624517926.144,8214
1762225,1624517926.146,8215
1762226,1624517926.148,8215
1762227,1624517926.15,8216
1762228,1624517926.152,8216
1762229,1624517926.154,8216
1762230,1624517926.156,8216
1762231,1624517926.158,8216
1762232,1624517926.16,8217
1762233,1624517926.162,8217
1762234,1624517926.164,8217
1762235,1624517926.166,8216
1762236,1624517926.168,8216
1762237,1624517926.17,8216
1762238,1624517926.172,8216
1762239,1624517926.174,8216
1762240,1624517926.176,8215
1762241,1624517926.178,8215
1762242,1624517926.18,8214
1762243,1624517926.182,8213
1762244,1624517926.184,8213
1762245,1624517926.186,8212
1762246,1624517926.188,8212
1762247,1624517926.19,8212
1762248,1624517926.192,8211
1762249,1624517926.194,8211
1762250,1624517926.196,8210
1762251,1624517926.198,8209
1762252,1624517926.2,8209
1762253,1624517926.202,8208
1762254,1624517926.204,8208
1762255,1624517926.206,8207
1762256,1624517926.208,8207
1762257,1624517926.21,8206
1762258,1624517926.212,8206
1762259,1624517926.214,8205
1762260,1624517926.216,8204
1762261,1624517926.218,8203
1762262,1624517926.22,8202
1762263,1624517926.222,8202
1762264,1624517926.224,8201
1762265,1624517926.226,8200
1762266,1624517926.228,8199
1762267,1624517926.23,8199
1762268,1624517926.232,8198
1762269,1624517926.234,8197
1762270,1624517926.236,8197
1762271,1624517926.238,8196
1762272,1624517926.24,8196
1762273,1624517926.242,8195
1762274,1624517926.244,8194
1762275,1624517926.246,8193
1762276,1624517926.248,8192
1762277,1624517926.25,8192
1762278,1624517926.252,8191
1762279,1624517926.254,8190
1762280,1624517926.256,8190
1762281,1624517926.258,8189
1762282,1624517926.26,8189
1762283,1624517926.262,8189
1762284,1624517926.264,8189
1762285,1624517926.266,8189
1762286,1624517926.268,8190
1762287,1624517926.27,8190
1762288,1624517926.272,8191
1762289,1624517926.274,8191
1762290,1624517926.276,8191
1762291,1624517926.278,8192
1762292,1624517926.28,8192
1762293,1624517926.282,8193
1762294,1624517926.284,8194
1762295,1624517926.286,8195
1762296,1624517926.288,8196
1762297,1624517926.29,8196
1762298,1624517926.292,8197
1762299,1624517926.294,8198
1762300,1624517926.296,8198
1762301,1624517926.298,8199
1762302,1624517926.3,8200
1762303,1624517926.302,8201
1762304,1624517926.304,8202
1762305,1624517926.306,8203
1762306,1624517926.308,8204
1762307,1624517926.31,8205
1762308,1624517926.312,8206
1762309,1624517926.314,8207
1762310,1624517926.316,8207
1762311,1624517926.318,8208
1762312,1624517926.32,8209
1762313,1624517926.322,8210
1762314,1624517926.324,8211
1762315,1624517926.326,8212
1762316,1624517926.328,8213
1762317,1624517926.33,8214
1762318,1624517926.332,8214
1762319,1624517926.334,8215
1762320,1624517926.336,8215
1762321,1624517926.338,8215
1762322,1624517926.34,8215
1762323,1624517926.342,8215
1762324,1624517926.344,8215
1762325,1624517926.346,8216
1762326,1624517926.348,8215
1762327,1624517926.35,8215
1762328,1624517926.352,8215
1762329,1624517926.354,8216
1762330,1624517926.356,8216
1762331,1624517926.358,8216
1762332,1624517926.36,8216
1762333,1624517926.362,8215
1762334,1624517926.364,8215
1762335,1624517926.366,8215
1762336,1624517926.368,8216
1762337,1624517926.37,8217
1762338,1624517926.372,8219
1762339,1624517926.374,8221
1762340,1624517926.376,8223
1762341,1624517926.378,8225
1762342,1624517926.38,8228
1762343,1624517926.382,8230
1762344,1624517926.384,8233
1762345,1624517926.386,8236
1762346,1624517926.388,8239
1762347,1624517926.39,8242
1762348,1624517926.392,8245
1762349,1624517926.394,8247
1762350,1624517926.396,8250
1762351,1624517926.398,8251
1762352,1624517926.4,8251
1762353,1624517926.402,8250
1762354,1624517926.404,8249
1762355,1624517926.406,8247
1762356,1624517926.408,8245
1762357,1624517926.41,8241
1762358,1624517926.412,8237
1762359,1624517926.414,8233
1762360,1624517926.416,8229
1762361,1624517926.418,8226
1762362,1624517926.42,8222
1762363,1624517926.422,8218
1762364,1624517926.424,8214
1762365,1624517926.426,8210
1762366,1624517926.428,8207
1762367,1624517926.43,8205
1762368,1624517926.432,8204
1762369,1624517926.434,8204
1762370,1624517926.436,8204
1762371,1624517926.438,8204
1762372,1624517926.44,8204
1762373,1624517926.442,8204
1762374,1624517926.444,8204
1762375,1624517926.446,8204
1762376,1624517926.448,8203
1762377,1624517926.45,8203
1762378,1624517926.452,8203
1762379,1624517926.454,8203
1762380,1624517926.456,8203
1762381,1624517926.458,8203
1762382,1624517926.46,8203
1762383,1624517926.462,8203
1762384,1624517926.464,8203
1762385,1624517926.466,8203
1762386,1624517926.468,8203
1762387,1624517926.47,8203
1762388,1624517926.472,8203
1762389,1624517926.474,8202
1762390,1624517926.476,8199
1762391,1624517926.478,8196
1762392,1624517926.48,8192
1762393,1624517926.482,8189
1762394,1624517926.484,8189
1762395,1624517926.486,8196
1762396,1624517926.488,8210
1762397,1624517926.49,8233
1762398,1624517926.492,8264
1762399,1624517926.494,8304
1762400,1624517926.496,8351
1762401,1624517926.498,8399
1762402,1624517926.5,8427
1762403,1624517926.502,8409
1762404,1624517926.504,8342
1762405,1624517926.506,8251
1762406,1624517926.508,8164
1762407,1624517926.51,8096
1762408,1624517926.512,8051
1762409,1624517926.514,8025
1762410,1624517926.516,8011
1762411,1624517926.518,7998
1762412,1624517926.52,7966
1762413,1624517926.522,7910
1762414,1624517926.524,7840
1762415,1624517926.526,7780
1762416,1624517926.528,7753
1762417,1624517926.53,7769
1762418,1624517926.532,7821
1762419,1624517926.534,7898
1762420,1624517926.536,7986
1762421,1624517926.538,8068
1762422,1624517926.54,8131
1762423,1624517926.542,8174
1762424,1624517926.544,8198
1762425,1624517926.546,8209
1762426,1624517926.548,8211
1762427,1624517926.55,8211
1762428,1624517926.552,8210
1762429,1624517926.554,8210
1762430,1624517926.556,8210
1762431,1624517926.558,8211
1762432,1624517926.56,8212
1762433,1624517926.562,8212
1762434,1624517926.564,8213
1762435,1624517926.566,8214
1762436,1624517926.568,8214
1762437,1624517926.57,8215
1762438,1624517926.572,8215
1762439,1624517926.574,8216
1762440,1624517926.576,8216
1762441,1624517926.578,8216
1762442,1624517926.58,8216
1762443,1624517926.582,8216
1762444,1624517926.584,8216
1762445,1624517926.586,8215
1762446,1624517926.588,8215
1762447,1624517926.59,8215
1762448,1624517926.592,8215
1762449,1624517926.594,8215
1762450,1624517926.596,8214
1762451,1624517926.598,8213
1762452,1624517926.6,8213
1762453,1624517926.602,8212
1762454,1624517926.604,8211
1762455,1624517926.606,8211
1762456,1624517926.608,8210
1762457,1624517926.61,8210
1762458,1624517926.612,8209
1762459,1624517926.614,8208
1762460,1624517926.616,8207
1762461,1624517926.618,8206
1762462,1624517926.62,8205
1762463,1624517926.622,8205
1762464,1624517926.624,8204
1762465,1624517926.626,8204
1762466,1624517926.628,8203
1762467,1624517926.63,8202
1762468,1624517926.632,8201
1762469,1624517926.634,8200
1762470,1624517926.636,8200
1762471,1624517926.638,8199
1762472,1624517926.64,8198
1762473,1624517926.642,8197
1762474,1624517926.644,8196
1762475,1624517926.646,8196
1762476,1624517926.648,8195
1762477,1624517926.65,8194
1762478,1624517926.652,8193
1762479,1624517926.654,8192
1762480,1624517926.656,8191
1762481,1624517926.658,8190
1762482,1624517926.66,8190
1762483,1624517926.662,8189
1762484,1624517926.664,8188
1762485,1624517926.666,8187
1762486,1624517926.668,8186
1762487,1624517926.67,8186
1762488,1624517926.672,8185
1762489,1624517926.674,8185
1762490,1624517926.676,8185
1762491,1624517926.678,8185
1762492,1624517926.68,8185
1762493,1624517926.682,8185
1762494,1624517926.684,8185
1762495,1624517926.686,8185
1762496,1624517926.688,8185
1762497,1624517926.69,8185
1762498,1624517926.692,8186
1762499,1624517926.694,8186
1762500,1624517926.696,8187
1762501,1624517926.698,8188
1762502,1624517926.7,8188
1762503,1624517926.702,8189
1762504,1624517926.704,8189
1762505,1624517926.706,8190
1762506,1624517926.708,8191
1762507,1624517926.71,8191
1762508,1624517926.712,8192
1762509,1624517926.714,8193
1762510,1624517926.716,8194
1762511,1624517926.718,8195
1762512,1624517926.72,8196
1762513,1624517926.722,8197
1762514,1624517926.724,8198
1762515,1624517926.726,8199
1762516,1624517926.728,8201
1762517,1624517926.73,8202
1762518,1624517926.732,8203
1762519,1624517926.734,8204
1762520,1624517926.736,8206
1762521,1624517926.738,8207
1762522,1624517926.74,8208
1762523,1624517926.742,8209
1762524,1624517926.744,8210
1762525,1624517926.746,8210
1762526,1624517926.748,8211
1762527,1624517926.75,8212
1762528,1624517926.752,8213
1762529,1624517926.754,8214
1762530,1624517926.756,8214
1762531,1624517926.758,8214
1762532,1624517926.76,8215
1762533,1624517926.762,8215
1762534,1624517926.764,8215
1762535,1624517926.766,8216
1762536,1624517926.768,8216
1762537,1624517926.77,8216
1762538,1624517926.772,8217
1762539,1624517926.774,8217
1762540,1624517926.776,8216
1762541,1624517926.778,8216
1762542,1624517926.78,8216
1762543,1624517926.782,8217
1762544,1624517926.784,8217
1762545,1624517926.786,8218
1762546,1624517926.788,8219
1762547,1624517926.79,8220
1762548,1624517926.792,8222
1762549,1624517926.794,8224
1762550,1624517926.796,8225
1762551,1624517926.798,8227
1762552,1624517926.8,8229
1762553,1624517926.802,8232
1762554,1624517926.804,8235
1762555,1624517926.806,8238
1762556,1624517926.808,8241
1762557,1624517926.81,8243
1762558,1624517926.812,8245
1762559,1624517926.814,8247
1762560,1624517926.816,8248
1762561,1624517926.818,8249
1762562,1624517926.82,8248
1762563,1624517926.822,8246
1762564,1624517926.824,8245
1762565,1624517926.826,8242
1762566,1624517926.828,8239
1762567,1624517926.83,8235
1762568,1624517926.832,8230
1762569,1624517926.834,8226
1762570,1624517926.836,8222
1762571,1624517926.838,8219
1762572,1624517926.84,8215
1762573,1624517926.842,8211
1762574,1624517926.844,8207
1762575,1624517926.846,8205
1762576,1624517926.848,8203
1762577,1624517926.85,8202
1762578,1624517926.852,8201
1762579,1624517926.854,8201
1762580,1624517926.856,8202
1762581,1624517926.858,8202
1762582,1624517926.86,8202
1762583,1624517926.862,8202
1762584,1624517926.864,8202
1762585,1624517926.866,8202
1762586,1624517926.868,8202
1762587,1624517926.87,8202
1762588,1624517926.872,8202
1762589,1624517926.874,8202
1762590,1624517926.876,8202
1762591,1624517926.878,8202
1762592,1624517926.88,8202
1762593,1624517926.882,8202
1762594,1624517926.884,8202
1762595,1624517926.886,8202
1762596,1624517926.888,8202
1762597,1624517926.89,8201
1762598,1624517926.892,8200
1762599,1624517926.894,8198
1762600,1624517926.896,8195
1762601,1624517926.898,8191
1762602,1624517926.9,8188
1762603,1624517926.902,8187
1762604,1624517926.904,8193
1762605,1624517926.906,8207
1762606,1624517926.908,8232
1762607,1624517926.91,8267
1762608,1624517926.912,8311
1762609,1624517926.914,8361
1762610,1624517926.916,8409
1762611,1624517926.918,8435
1762612,1624517926.92,8412
1762613,1624517926.922,8341
1762614,1624517926.924,8249
1762615,1624517926.926,8162
1762616,1624517926.928,8092
1762617,1624517926.93,8042
1762618,1624517926.932,8011
1762619,1624517926.934,7993
1762620,1624517926.936,7976
1762621,1624517926.938,7941
1762622,1624517926.94,7884
1762623,1624517926.942,7819
1762624,1624517926.944,7766
1762625,1624517926.946,7747
1762626,1624517926.948,7770
1762627,1624517926.95,7828
1762628,1624517926.952,7912
1762629,1624517926.954,8005
1762630,1624517926.956,8085
1762631,1624517926.958,8144
1762632,1624517926.96,8181
1762633,1624517926.962,8200
1762634,1624517926.964,8208
1762635,1624517926.966,8209
1762636,1624517926.968,8208
1762637,1624517926.97,8208
1762638,1624517926.972,8208
1762639,1624517926.974,8208
1762640,1624517926.976,8209
1762641,1624517926.978,8210
1762642,1624517926.98,8211
1762643,1624517926.982,8211
1762644,1624517926.984,8212
1762645,1624517926.986,8213
1762646,1624517926.988,8213
1762647,1624517926.99,8213
1762648,1624517926.992,8214
1762649,1624517926.994,8213
1762650,1624517926.996,8213
1762651,1624517926.998,8212
1762652,1624517927.0,8212
1762653,1624517927.002,8212
1762654,1624517927.004,8212
1762655,1624517927.006,8212
1762656,1624517927.008,8212
1762657,1624517927.01,8211
1762658,1624517927.012,8211
1762659,1624517927.014,8210
1762660,1624517927.016,8210
1762661,1624517927.018,8210
1762662,1624517927.02,8210
1762663,1624517927.022,8209
1762664,1624517927.024,8208
1762665,1624517927.026,8207
1762666,1624517927.028,8206
1762667,1624517927.03,8205
1762668,1624517927.032,8205
1762669,1624517927.034,8205
1762670,1624517927.036,8204
1762671,1624517927.038,8204
1762672,1624517927.04,8203
1762673,1624517927.042,8202
1762674,1624517927.044,8202
1762675,1624517927.046,8201
1762676,1624517927.048,8200
1762677,1624517927.05,8199
1762678,1624517927.052,8199
1762679,1624517927.054,8198
1762680,1624517927.056,8197
1762681,1624517927.058,8197
1762682,1624517927.06,8196
1762683,1624517927.062,8195
1762684,1624517927.064,8194
1762685,1624517927.066,8193
1762686,1624517927.068,8192
1762687,1624517927.07,8191
1762688,1624517927.072,8191
1762689,1624517927.074,8190
1762690,1624517927.076,8189
1762691,1624517927.078,8188
1762692,1624517927.08,8187
1762693,1624517927.082,8186
1762694,1624517927.084,8185
1762695,1624517927.086,8185
1762696,1624517927.088,8184
1762697,1624517927.09,8184
1762698,1624517927.092,8183
1762699,1624517927.094,8182
1762700,1624517927.096,8182
1762701,1624517927.098,8181
1762702,1624517927.1,8181
1762703,1624517927.102,8181
1762704,1624517927.104,8181
1762705,1624517927.106,8182
1762706,1624517927.108,8182
1762707,1624517927.11,8182
1762708,1624517927.112,8183
1762709,1624517927.114,8183
1762710,1624517927.116,8184
1762711,1624517927.118,8185
1762712,1624517927.12,8186
1762713,1624517927.122,8187
1762714,1624517927.124,8187
1762715,1624517927.126,8188
1762716,1624517927.128,8189
1762717,1624517927.13,8190
1762718,1624517927.132,8191
1762719,1624517927.134,8192
1762720,1624517927.136,8193
1762721,1624517927.138,8194
1762722,1624517927.14,8195
1762723,1624517927.142,8196
1762724,1624517927.144,8197
1762725,1624517927.146,8198
1762726,1624517927.148,8199
1762727,1624517927.15,8200
1762728,1624517927.152,8202
1762729,1624517927.154,8203
1762730,1624517927.156,8205
1762731,1624517927.158,8206
1762732,1624517927.16,8208
1762733,1624517927.162,8209
1762734,1624517927.164,8210
1762735,1624517927.166,8211
1762736,1624517927.168,8211
1762737,1624517927.17,8212
1762738,1624517927.172,8213
1762739,1624517927.174,8213
1762740,1624517927.176,8214
1762741,1624517927.178,8214
1762742,1624517927.18,8214
1762743,1624517927.182,8214
1762744,1624517927.184,8215
1762745,1624517927.186,8215
1762746,1624517927.188,8215
1762747,1624517927.19,8215
1762748,1624517927.192,8215
1762749,1624517927.194,8215
1762750,1624517927.196,8215
1762751,1624517927.198,8215
1762752,1624517927.2,8215
1762753,1624517927.202,8215
1762754,1624517927.204,8216
1762755,1624517927.206,8217
1762756,1624517927.208,8218
1762757,1624517927.21,8220
1762758,1624517927.212,8222
1762759,1624517927.214,8224
1762760,1624517927.216,8226
1762761,1624517927.218,8228
1762762,1624517927.22,8230
1762763,1624517927.222,8233
1762764,1624517927.224,8236
1762765,1624517927.226,8239
1762766,1624517927.228,8242
1762767,1624517927.23,8244
1762768,1624517927.232,8247
1762769,1624517927.234,8248
1762770,1624517927.236,8249
1762771,1624517927.238,8249
1762772,1624517927.24,8247
1762773,1624517927.242,8245
1762774,1624517927.244,8242
1762775,1624517927.246,8239
1762776,1624517927.248,8234
1762777,1624517927.25,8230
1762778,1624517927.252,8226
1762779,1624517927.254,8222
1762780,1624517927.256,8218
1762781,1624517927.258,8214
1762782,1624517927.26,8210
1762783,1624517927.262,8207
1762784,1624517927.264,8204
1762785,1624517927.266,8203
1762786,1624517927.268,8202
1762787,1624517927.27,8203
1762788,1624517927.272,8203
1762789,1624517927.274,8203
1762790,1624517927.276,8203
1762791,1624517927.278,8203
1762792,1624517927.28,8203
1762793,1624517927.282,8202
1762794,1624517927.284,8202
1762795,1624517927.286,8203
1762796,1624517927.288,8203
1762797,1624517927.29,8203
1762798,1624517927.292,8203
1762799,1624517927.294,8203
1762800,1624517927.296,8203
1762801,1624517927.298,8202
1762802,1624517927.3,8202
1762803,1624517927.302,8203
1762804,1624517927.304,8203
1762805,1624517927.306,8202
1762806,1624517927.308,8202
1762807,1624517927.31,8200
1762808,1624517927.312,8198
1762809,1624517927.314,8195
1762810,1624517927.316,8192
1762811,1624517927.318,8190
1762812,1624517927.32,8191
1762813,1624517927.322,8198
1762814,1624517927.324,8214
1762815,1624517927.326,8241
1762816,1624517927.328,8278
1762817,1624517927.33,8323
1762818,1624517927.332,8373
1762819,1624517927.334,8418
1762820,1624517927.336,8436
1762821,1624517927.338,8409
1762822,1624517927.34,8338
1762823,1624517927.342,8245
1762824,1624517927.344,8158
1762825,1624517927.346,8090
1762826,1624517927.348,8044
1762827,1624517927.35,8016
1762828,1624517927.352,8001
1762829,1624517927.354,7982
1762830,1624517927.356,7942
1762831,1624517927.358,7883
1762832,1624517927.36,7818
1762833,1624517927.362,7769
1762834,1624517927.364,7754
1762835,1624517927.366,7780
1762836,1624517927.368,7841
1762837,1624517927.37,7927
1762838,1624517927.372,8019
1762839,1624517927.374,8097
1762840,1624517927.376,8152
1762841,1624517927.378,8186
1762842,1624517927.38,8203
1762843,1624517927.382,8209
1762844,1624517927.384,8209
1762845,1624517927.386,8209
1762846,1624517927.388,8208
1762847,1624517927.39,8208
1762848,1624517927.392,8209
1762849,1624517927.394,8211
1762850,1624517927.396,8212
1762851,1624517927.398,8213
1762852,1624517927.4,8213
1762853,1624517927.402,8213
1762854,1624517927.404,8213
1762855,1624517927.406,8213
1762856,1624517927.408,8213
1762857,1624517927.41,8214
1762858,1624517927.412,8214
1762859,1624517927.414,8214
1762860,1624517927.416,8214
1762861,1624517927.418,8213
1762862,1624517927.42,8213
1762863,1624517927.422,8213
1762864,1624517927.424,8213
1762865,1624517927.426,8212
1762866,1624517927.428,8212
1762867,1624517927.43,8212
1762868,1624517927.432,8211
1762869,1624517927.434,8211
1762870,1624517927.436,8210
1762871,1624517927.438,8210
1762872,1624517927.44,8210
1762873,1624517927.442,8209
1762874,1624517927.444,8209
1762875,1624517927.446,8208
1762876,1624517927.448,8207
1762877,1624517927.45,8207
1762878,1624517927.452,8206
1762879,1624517927.454,8205
1762880,1624517927.456,8205
1762881,1624517927.458,8204
1762882,1624517927.46,8204
1762883,1624517927.462,8204
1762884,1624517927.464,8204
1762885,1624517927.466,8203
1762886,1624517927.468,8202
1762887,1624517927.47,8201
1762888,1624517927.472,8200
1762889,1624517927.474,8200
1762890,1624517927.476,8199
1762891,1624517927.478,8198
1762892,1624517927.48,8197
1762893,1624517927.482,8196
1762894,1624517927.484,8195
1762895,1624517927.486,8194
1762896,1624517927.488,8193
1762897,1624517927.49,8192
1762898,1624517927.492,8191
1762899,1624517927.494,8190
1762900,1624517927.496,8189
1762901,1624517927.498,8188
1762902,1624517927.5,8188
1762903,1624517927.502,8187
1762904,1624517927.504,8186
1762905,1624517927.506,8186
1762906,1624517927.508,8185
1762907,1624517927.51,8185
1762908,1624517927.512,8185
1762909,1624517927.514,8185
1762910,1624517927.516,8186
1762911,1624517927.518,8186
1762912,1624517927.52,8186
1762913,1624517927.522,8186
1762914,1624517927.524,8187
1762915,1624517927.526,8187
1762916,1624517927.528,8187
1762917,1624517927.53,8187
1762918,1624517927.532,8188
1762919,1624517927.534,8188
1762920,1624517927.536,8189
1762921,1624517927.538,8189
1762922,1624517927.54,8190
1762923,1624517927.542,8190
1762924,1624517927.544,8191
1762925,1624517927.546,8192
1762926,1624517927.548,8194
1762927,1624517927.55,8195
1762928,1624517927.552,8196
1762929,1624517927.554,8197
1762930,1624517927.556,8198
1762931,1624517927.558,8199
1762932,1624517927.56,8200
1762933,1624517927.562,8201
1762934,1624517927.564,8202
1762935,1624517927.566,8203
1762936,1624517927.568,8204
1762937,1624517927.57,8205
1762938,1624517927.572,8206
1762939,1624517927.574,8207
1762940,1624517927.576,8209
1762941,1624517927.578,8210
1762942,1624517927.58,8211
1762943,1624517927.582,8211
1762944,1624517927.584,8212
1762945,1624517927.586,8212
1762946,1624517927.588,8213
1762947,1624517927.59,8213
1762948,1624517927.592,8214
1762949,1624517927.594,8215
1762950,1624517927.596,8216
1762951,1624517927.598,8216
1762952,1624517927.6,8216
1762953,1624517927.602,8215
1762954,1624517927.604,8215
1762955,1624517927.606,8215
1762956,1624517927.608,8215
1762957,1624517927.61,8216
1762958,1624517927.612,8216
1762959,1624517927.614,8216
1762960,1624517927.616,8216
1762961,1624517927.618,8216
1762962,1624517927.62,8216
1762963,1624517927.622,8216
1762964,1624517927.624,8218
1762965,1624517927.626,8219
1762966,1624517927.628,8221
1762967,1624517927.63,8223
1762968,1624517927.632,8226
1762969,1624517927.634,8228
1762970,1624517927.636,8232
1762971,1624517927.638,8235
1762972,1624517927.64,8238
1762973,1624517927.642,8241
1762974,1624517927.644,8243
1762975,1624517927.646,8245
1762976,1624517927.648,8248
1762977,1624517927.65,8250
1762978,1624517927.652,8251
1762979,1624517927.654,8251
1762980,1624517927.656,8250
1762981,1624517927.658,8249
1762982,1624517927.66,8247
1762983,1624517927.662,8243
1762984,1624517927.664,8239
1762985,1624517927.666,8235
1762986,1624517927.668,8231
1762987,1624517927.67,8227
1762988,1624517927.672,8223
1762989,1624517927.674,8219
1762990,1624517927.676,8214
1762991,1624517927.678,8210
1762992,1624517927.68,8207
1762993,1624517927.682,8205
1762994,1624517927.684,8204
1762995,1624517927.686,8203
1762996,1624517927.688,8203
1762997,1624517927.69,8203
1762998,1624517927.692,8203
1762999,1624517927.694,8203
1763000,1624517927.696,8203
1763001,1624517927.698,8203
1763002,1624517927.7,8203
1763003,1624517927.702,8203
1763004,1624517927.704,8203
1763005,1624517927.706,8203
1763006,1624517927.708,8203
1763007,1624517927.71,8203
1763008,1624517927.712,8203
1763009,1624517927.714,8203
1763010,1624517927.716,8203
1763011,1624517927.718,8203
1763012,1624517927.72,8202
1763013,1624517927.722,8202
1763014,1624517927.724,8202
1763015,1624517927.726,8201
1763016,1624517927.728,8200
1763017,1624517927.73,8198
1763018,1624517927.732,8194
1763019,1624517927.734,8191
1763020,1624517927.736,8189
1763021,1624517927.738,8193
1763022,1624517927.74,8205
1763023,1624517927.742,8227
1763024,1624517927.744,8259
1763025,1624517927.746,8301
1763026,1624517927.748,8349
1763027,1624517927.75,8397
1763028,1624517927.752,8434
1763029,1624517927.754,8436
1763030,1624517927.756,8387
1763031,1624517927.758,8301
1763032,1624517927.76,8209
1763033,1624517927.762,8132
1763034,1624517927.764,8076
1763035,1624517927.766,8042
1763036,1624517927.768,8023
1763037,1624517927.77,8011
1763038,1624517927.772,7988
1763039,1624517927.774,7942
1763040,1624517927.776,7876
1763041,1624517927.778,7808
1763042,1624517927.78,7765
1763043,1624517927.782,7763
1763044,1624517927.784,7802
1763045,1624517927.786,7875
1763046,1624517927.788,7966
1763047,1624517927.79,8054
1763048,1624517927.792,8122
1763049,1624517927.794,8167
1763050,1624517927.796,8192
1763051,1624517927.798,8204
1763052,1624517927.8,8207
1763053,1624517927.802,8207
1763054,1624517927.804,8206
1763055,1624517927.806,8206
1763056,1624517927.808,8206
1763057,1624517927.81,8207
1763058,1624517927.812,8208
1763059,1624517927.814,8209
1763060,1624517927.816,8210
1763061,1624517927.818,8210
1763062,1624517927.82,8211
1763063,1624517927.822,8211
1763064,1624517927.824,8212
1763065,1624517927.826,8212
1763066,1624517927.828,8212
1763067,1624517927.83,8212
1763068,1624517927.832,8211
1763069,1624517927.834,8211
1763070,1624517927.836,8211
1763071,1624517927.838,8211
1763072,1624517927.84,8211
1763073,1624517927.842,8211
1763074,1624517927.844,8211
1763075,1624517927.846,8211
1763076,1624517927.848,8210
1763077,1624517927.85,8210
1763078,1624517927.852,8209
1763079,1624517927.854,8208
1763080,1624517927.856,8207
1763081,1624517927.858,8207
1763082,1624517927.86,8206
1763083,1624517927.862,8206
1763084,1624517927.864,8206
1763085,1624517927.866,8205
1763086,1624517927.868,8205
1763087,1624517927.87,8205
1763088,1624517927.872,8204
1763089,1624517927.874,8203
1763090,1624517927.876,8202
1763091,1624517927.878,8201
1763092,1624517927.88,8200
1763093,1624517927.882,8199
1763094,1624517927.884,8198
1763095,1624517927.886,8198
1763096,1624517927.888,8197
1763097,1624517927.89,8197
1763098,1624517927.892,8196
1763099,1624517927.894,8196
1763100,1624517927.896,8195
1763101,1624517927.898,8194
1763102,1624517927.9,8193
1763103,1624517927.902,8192
1763104,1624517927.904,8191
1763105,1624517927.906,8190
1763106,1624517927.908,8190
1763107,1624517927.91,8190
1763108,1624517927.912,8189
1763109,1624517927.914,8188
1763110,1624517927.916,8187
1763111,1624517927.918,8186
1763112,1624517927.92,8185
1763113,1624517927.922,8185
1763114,1624517927.924,8184
1763115,1624517927.926,8184
1763116,1624517927.928,8184
1763117,1624517927.93,8184
1763118,1624517927.932,8184
1763119,1624517927.934,8183
1763120,1624517927.936,8184
1763121,1624517927.938,8184
1763122,1624517927.94,8185
1763123,1624517927.942,8185
1763124,1624517927.944,8186
1763125,1624517927.946,8186
1763126,1624517927.948,8187
1763127,1624517927.95,8188
1763128,1624517927.952,8188
1763129,1624517927.954,8189
1763130,1624517927.956,8190
1763131,1624517927.958,8191
1763132,1624517927.96,8192
1763133,1624517927.962,8193
1763134,1624517927.964,8195
1763135,1624517927.966,8195
1763136,1624517927.968,8196
1763137,1624517927.97,8197
1763138,1624517927.972,8198
1763139,1624517927.974,8199
1763140,1624517927.976,8200
1763141,1624517927.978,8201
1763142,1624517927.98,8202
1763143,1624517927.982,8203
1763144,1624517927.984,8204
1763145,1624517927.986,8205
1763146,1624517927.988,8206
1763147,1624517927.99,8207
1763148,1624517927.992,8208
1763149,1624517927.994,8208
1763150,1624517927.996,8209
1763151,1624517927.998,8211
1763152,1624517928.0,8211
1763153,1624517928.002,8212
1763154,1624517928.004,8213
1763155,1624517928.006,8213
1763156,1624517928.008,8213
1763157,1624517928.01,8214
1763158,1624517928.012,8215
1763159,1624517928.014,8215
1763160,1624517928.016,8215
1763161,1624517928.018,8215
1763162,1624517928.02,8215
1763163,1624517928.022,8215
1763164,1624517928.024,8215
1763165,1624517928.026,8214
1763166,1624517928.028,8214
1763167,1624517928.03,8214
1763168,1624517928.032,8214
1763169,1624517928.034,8214
1763170,1624517928.036,8214
1763171,1624517928.038,8214
1763172,1624517928.04,8215
1763173,1624517928.042,8217
1763174,1624517928.044,8219
1763175,1624517928.046,8221
1763176,1624517928.048,8224
1763177,1624517928.05,8226
1763178,1624517928.052,8228
1763179,1624517928.054,8231
1763180,1624517928.056,8234
1763181,1624517928.058,8238
1763182,1624517928.06,8241
1763183,1624517928.062,8243
1763184,1624517928.064,8245
1763185,1624517928.066,8248
1763186,1624517928.068,8250
1763187,1624517928.07,8251
1763188,1624517928.072,8250
1763189,1624517928.074,8249
1763190,1624517928.076,8247
1763191,1624517928.078,8245
1763192,1624517928.08,8240
1763193,1624517928.082,8235
1763194,1624517928.084,8230
1763195,1624517928.086,8226
1763196,1624517928.088,8222
1763197,1624517928.09,8219
1763198,1624517928.092,8215
1763199,1624517928.094,8210
1763200,1624517928.096,8207
1763201,1624517928.098,8204
1763202,1624517928.1,8202
1763203,1624517928.102,8201
1763204,1624517928.104,8200
1763205,1624517928.106,8200
1763206,1624517928.108,8200
1763207,1624517928.11,8200
1763208,1624517928.112,8201
1763209,1624517928.114,8201
1763210,1624517928.116,8201
1763211,1624517928.118,8201
1763212,1624517928.12,8201
1763213,1624517928.122,8200
1763214,1624517928.124,8200
1763215,1624517928.126,8200
1763216,1624517928.128,8200
1763217,1624517928.13,8200
1763218,1624517928.132,8200
1763219,1624517928.134,8200
1763220,1624517928.136,8200
1763221,1624517928.138,8199
1763222,1624517928.14,8199
1763223,1624517928.142,8198
1763224,1624517928.144,8197
1763225,1624517928.146,8195
1763226,1624517928.148,8192
1763227,1624517928.15,8189
1763228,1624517928.152,8186
1763229,1624517928.154,8187
1763230,1624517928.156,8193
1763231,1624517928.158,8208
1763232,1624517928.16,8233
1763233,1624517928.162,8266
1763234,1624517928.164,8306
1763235,1624517928.166,8351
1763236,1624517928.168,8399
1763237,1624517928.17,8433
1763238,1624517928.172,8426
1763239,1624517928.174,8369
1763240,1624517928.176,8284
1763241,1624517928.178,8199
1763242,1624517928.18,8130
1763243,1624517928.182,8082
1763244,1624517928.184,8051
1763245,1624517928.186,8036
1763246,1624517928.188,8023
1763247,1624517928.19,7994
1763248,1624517928.192,7939
1763249,1624517928.194,7867
1763250,1624517928.196,7799
1763251,1624517928.198,7762
1763252,1624517928.2,7766
1763253,1624517928.202,7811
1763254,1624517928.204,7888
1763255,1624517928.206,7979
1763256,1624517928.208,8060
1763257,1624517928.21,8122
1763258,1624517928.212,8164
1763259,1624517928.214,8189
1763260,1624517928.216,8201
1763261,1624517928.218,8205
1763262,1624517928.22,8205
1763263,1624517928.222,8204
1763264,1624517928.224,8204
1763265,1624517928.226,8204
1763266,1624517928.228,8204
1763267,1624517928.23,8205
1763268,1624517928.232,8206
1763269,1624517928.234,8207
1763270,1624517928.236,8207
1763271,1624517928.238,8208
1763272,1624517928.24,8209
1763273,1624517928.242,8210
1763274,1624517928.244,8211
1763275,1624517928.246,8211
1763276,1624517928.248,8210
1763277,1624517928.25,8210
1763278,1624517928.252,8209
1763279,1624517928.254,8210
1763280,1624517928.256,8210
1763281,1624517928.258,8209
1763282,1624517928.26,8209
1763283,1624517928.262,8208
1763284,1624517928.264,8207
1763285,1624517928.266,8206
1763286,1624517928.268,8206
1763287,1624517928.27,8205
1763288,1624517928.272,8205
1763289,1624517928.274,8204
1763290,1624517928.276,8203
1763291,1624517928.278,8203
1763292,1624517928.28,8203
1763293,1624517928.282,8202
1763294,1624517928.284,8202
1763295,1624517928.286,8201
1763296,1624517928.288,8200
1763297,1624517928.29,8200
1763298,1624517928.292,8199
1763299,1624517928.294,8198
1763300,1624517928.296,8197
1763301,1624517928.298,8196
1763302,1624517928.3,8195
1763303,1624517928.302,8194
1763304,1624517928.304,8194
1763305,1624517928.306,8194
1763306,1624517928.308,8193
1763307,1624517928.31,8192
1763308,1624517928.312,8190
1763309,1624517928.314,8188
1763310,1624517928.316,8187
1763311,1624517928.318,8186
1763312,1624517928.32,8186
1763313,1624517928.322,8186
1763314,1624517928.324,8185
1763315,1624517928.326,8184
1763316,1624517928.328,8183
1763317,1624517928.33,8182
1763318,1624517928.332,8181
1763319,1624517928.334,8180
1763320,1624517928.336,8179
1763321,1624517928.338,8179
1763322,1624517928.34,8179
1763323,1624517928.342,8178
1763324,1624517928.344,8177
1763325,1624517928.346,8177
1763326,1624517928.348,8177
1763327,1624517928.35,8177
1763328,1624517928.352,8178
1763329,1624517928.354,8178
1763330,1624517928.356,8178
1763331,1624517928.358,8178
1763332,1624517928.36,8178
1763333,1624517928.362,8178
1763334,1624517928.364,8178
1763335,1624517928.366,8178
1763336,1624517928.368,8179
1763337,1624517928.37,8181
1763338,1624517928.372,8182
1763339,1624517928.374,8184
1763340,1624517928.376,8184
1763341,1624517928.378,8184
1763342,1624517928.38,8185
1763343,1624517928.382,8186
1763344,1624517928.384,8187
1763345,1624517928.386,8189
1763346,1624517928.388,8190
1763347,1624517928.39,8192
1763348,1624517928.392,8193
1763349,1624517928.394,8194
1763350,1624517928.396,8195
1763351,1624517928.398,8195
1763352,1624517928.4,8197
1763353,1624517928.402,8198
1763354,1624517928.404,8199
1763355,1624517928.406,8200
1763356,1624517928.408,8201
1763357,1624517928.41,8202
1763358,1624517928.412,8203
1763359,1624517928.414,8204
1763360,1624517928.416,8204
1763361,1624517928.418,8205
1763362,1624517928.42,8206
1763363,1624517928.422,8207
1763364,1624517928.424,8208
1763365,1624517928.426,8209
1763366,1624517928.428,8209
1763367,1624517928.43,8209
1763368,1624517928.432,8209
1763369,1624517928.434,8208
1763370,1624517928.436,8208
1763371,1624517928.438,8209
1763372,1624517928.44,8210
1763373,1624517928.442,8210
1763374,1624517928.444,8210
1763375,1624517928.446,8210
1763376,1624517928.448,8210
1763377,1624517928.45,8210
1763378,1624517928.452,8210
1763379,1624517928.454,8210
1763380,1624517928.456,8210
1763381,1624517928.458,8211
1763382,1624517928.46,8212
1763383,1624517928.462,8214
1763384,1624517928.464,8216
1763385,1624517928.466,8218
1763386,1624517928.468,8220
1763387,1624517928.47,8223
1763388,1624517928.472,8226
1763389,1624517928.474,8229
1763390,1624517928.476,8232
1763391,1624517928.478,8236
1763392,1624517928.48,8239
1763393,1624517928.482,8242
1763394,1624517928.484,8244
1763395,1624517928.486,8246
1763396,1624517928.488,8246
1763397,1624517928.49,8245
1763398,1624517928.492,8243
1763399,1624517928.494,8241
1763400,1624517928.496,8239
1763401,1624517928.498,8235
1763402,1624517928.5,8231
1763403,1624517928.502,8226
1763404,1624517928.504,8222
1763405,1624517928.506,8219
1763406,1624517928.508,8215
1763407,1624517928.51,8212
1763408,1624517928.512,8208
1763409,1624517928.514,8204
1763410,1624517928.516,8201
1763411,1624517928.518,8199
1763412,1624517928.52,8198
1763413,1624517928.522,8198
1763414,1624517928.524,8198
1763415,1624517928.526,8197
1763416,1624517928.528,8197
1763417,1624517928.53,8198
1763418,1624517928.532,8197
1763419,1624517928.534,8197
1763420,1624517928.536,8197
1763421,1624517928.538,8198
1763422,1624517928.54,8198
1763423,1624517928.542,8198
1763424,1624517928.544,8198
1763425,1624517928.546,8197
1763426,1624517928.548,8198
1763427,1624517928.55,8198
1763428,1624517928.552,8198
1763429,1624517928.554,8198
1763430,1624517928.556,8198
1763431,1624517928.558,8197
1763432,1624517928.56,8197
1763433,1624517928.562,8196
1763434,1624517928.564,8195
1763435,1624517928.566,8192
1763436,1624517928.568,8188
1763437,1624517928.57,8186
1763438,1624517928.572,8187
1763439,1624517928.574,8193
1763440,1624517928.576,8206
1763441,1624517928.578,8229
1763442,1624517928.58,8263
1763443,1624517928.582,8306
1763444,1624517928.584,8356
1763445,1624517928.586,8407
1763446,1624517928.588,8442
1763447,1624517928.59,8433
1763448,1624517928.592,8373
1763449,1624517928.594,8286
1763450,1624517928.596,8201
1763451,1624517928.598,8134
1763452,1624517928.6,8087
1763453,1624517928.602,8057
1763454,1624517928.604,8039
1763455,1624517928.606,8022
1763456,1624517928.608,7987
1763457,1624517928.61,7928
1763458,1624517928.612,7855
1763459,1624517928.614,7791
1763460,1624517928.616,7761
1763461,1624517928.618,7772
1763462,1624517928.62,7818
1763463,1624517928.622,7892
1763464,1624517928.624,7981
1763465,1624517928.626,8064
1763466,1624517928.628,8128
1763467,1624517928.63,8170
1763468,1624517928.632,8194
1763469,1624517928.634,8204
1763470,1624517928.636,8206
1763471,1624517928.638,8206
1763472,1624517928.64,8205
1763473,1624517928.642,8205
1763474,1624517928.644,8205
1763475,1624517928.646,8206
1763476,1624517928.648,8207
1763477,1624517928.65,8207
1763478,1624517928.652,8208
1763479,1624517928.654,8209
1763480,1624517928.656,8210
1763481,1624517928.658,8210
1763482,1624517928.66,8211
1763483,1624517928.662,8211
1763484,1624517928.664,8211
1763485,1624517928.666,8211
1763486,1624517928.668,8210
1763487,1624517928.67,8210
1763488,1624517928.672,8210
1763489,1624517928.674,8209
1763490,1624517928.676,8209
1763491,1624517928.678,8209
1763492,1624517928.68,8209
1763493,1624517928.682,8209
1763494,1624517928.684,8208
1763495,1624517928.686,8208
1763496,1624517928.688,8208
1763497,1624517928.69,8207
1763498,1624517928.692,8207
1763499,1624517928.694,8207
1763500,1624517928.696,8206
1763501,1624517928.698,8206
1763502,1624517928.7,8205
1763503,1624517928.702,8205
1763504,1624517928.704,8204
1763505,1624517928.706,8203
1763506,1624517928.708,8202
1763507,1624517928.71,8201
1763508,1624517928.712,8201
1763509,1624517928.714,8200
1763510,1624517928.716,8200
1763511,1624517928.718,8199
1763512,1624517928.72,8198
1763513,1624517928.722,8198
1763514,1624517928.724,8197
1763515,1624517928.726,8196
1763516,1624517928.728,8195
1763517,1624517928.73,8194
1763518,1624517928.732,8193
1763519,1624517928.734,8193
1763520,1624517928.736,8192
1763521,1624517928.738,8191
1763522,1624517928.74,8191
1763523,1624517928.742,8190
1763524,1624517928.744,8189
1763525,1624517928.746,8188
1763526,1624517928.748,8187
1763527,1624517928.75,8186
1763528,1624517928.752,8185
1763529,1624517928.754,8185
1763530,1624517928.756,8184
1763531,1624517928.758,8183
1763532,1624517928.76,8183
1763533,1624517928.762,8182
1763534,1624517928.764,8182
1763535,1624517928.766,8181
1763536,1624517928.768,8181
1763537,1624517928.77,8181
1763538,1624517928.772,8182
1763539,1624517928.774,8182
1763540,1624517928.776,8182
1763541,1624517928.778,8182
1763542,1624517928.78,8183
1763543,1624517928.782,8183
1763544,1624517928.784,8184
1763545,1624517928.786,8185
1763546,1624517928.788,8186
1763547,1624517928.79,8187
1763548,1624517928.792,8188
1763549,1624517928.794,8188
1763550,1624517928.796,8189
1763551,1624517928.798,8190
1763552,1624517928.8,8191
1763553,1624517928.802,8192
1763554,1624517928.804,8193
1763555,1624517928.806,8193
1763556,1624517928.808,8194
1763557,1624517928.81,8195
1763558,1624517928.812,8197
1763559,1624517928.814,8198
1763560,1624517928.816,8200
1763561,1624517928.818,8201
1763562,1624517928.82,8203
1763563,1624517928.822,8204
1763564,1624517928.824,8206
1763565,1624517928.826,8207
1763566,1624517928.828,8208
1763567,1624517928.83,8209
1763568,1624517928.832,8210
1763569,1624517928.834,8211
1763570,1624517928.836,8212
1763571,1624517928.838,8213
1763572,1624517928.84,8214
1763573,1624517928.842,8215
1763574,1624517928.844,8215
1763575,1624517928.846,8216
1763576,1624517928.848,8216
1763577,1624517928.85,8217
1763578,1624517928.852,8217
1763579,1624517928.854,8217
1763580,1624517928.856,8217
1763581,1624517928.858,8217
1763582,1624517928.86,8217
1763583,1624517928.862,8217
1763584,1624517928.864,8217
1763585,1624517928.866,8217
1763586,1624517928.868,8217
1763587,1624517928.87,8217
1763588,1624517928.872,8218
1763589,1624517928.874,8218
1763590,1624517928.876,8219
1763591,1624517928.878,8220
1763592,1624517928.88,8222
1763593,1624517928.882,8224
1763594,1624517928.884,8226
1763595,1624517928.886,8228
1763596,1624517928.888,8229
1763597,1624517928.89,8231
1763598,1624517928.892,8233
1763599,1624517928.894,8236
1763600,1624517928.896,8239
1763601,1624517928.898,8242
1763602,1624517928.9,8244
1763603,1624517928.902,8247
1763604,1624517928.904,8249
1763605,1624517928.906,8250
1763606,1624517928.908,8251
1763607,1624517928.91,8250
1763608,1624517928.912,8249
1763609,1624517928.914,8247
1763610,1624517928.916,8244
1763611,1624517928.918,8240
1763612,1624517928.92,8236
1763613,1624517928.922,8231
1763614,1624517928.924,8227
1763615,1624517928.926,8224
1763616,1624517928.928,8221
1763617,1624517928.93,8217
1763618,1624517928.932,8214
1763619,1624517928.934,8210
1763620,1624517928.936,8208
1763621,1624517928.938,8206
1763622,1624517928.94,8205
1763623,1624517928.942,8205
1763624,1624517928.944,8204
1763625,1624517928.946,8204
1763626,1624517928.948,8204
1763627,1624517928.95,8204
1763628,1624517928.952,8204
1763629,1624517928.954,8204
1763630,1624517928.956,8204
1763631,1624517928.958,8204
1763632,1624517928.96,8204
1763633,1624517928.962,8204
1763634,1624517928.964,8204
1763635,1624517928.966,8204
1763636,1624517928.968,8203
1763637,1624517928.97,8203
1763638,1624517928.972,8203
1763639,1624517928.974,8203
1763640,1624517928.976,8203
1763641,1624517928.978,8203
1763642,1624517928.98,8202
1763643,1624517928.982,8201
1763644,1624517928.984,8198
1763645,1624517928.986,8195
1763646,1624517928.988,8191
1763647,1624517928.99,8189
1763648,1624517928.992,8191
1763649,1624517928.994,8201
1763650,1624517928.996,8219
1763651,1624517928.998,8248
1763652,1624517929.0,8287
1763653,1624517929.002,8335
1763654,1624517929.004,8388
1763655,1624517929.006,8432
1763656,1624517929.008,8440
1763657,1624517929.01,8398
1763658,1624517929.012,8318
1763659,1624517929.014,8227
1763660,1624517929.016,8145
1763661,1624517929.018,8082
1763662,1624517929.02,8039
1763663,1624517929.022,8014
1763664,1624517929.024,7999
1763665,1624517929.026,7975
1763666,1624517929.028,7930
1763667,1624517929.03,7867
1763668,1624517929.032,7803
1763669,1624517929.034,7760
1763670,1624517929.036,7756
1763671,1624517929.038,7793
1763672,1624517929.04,7862
1763673,1624517929.042,7952
1763674,1624517929.044,8041
1763675,1624517929.046,8112
1763676,1624517929.048,8162
1763677,1624517929.05,8191
1763678,1624517929.052,8205
1763679,1624517929.054,8210
1763680,1624517929.056,8210
1763681,1624517929.058,8208
1763682,1624517929.06,8208
1763683,1624517929.062,8208
1763684,1624517929.064,8208
1763685,1624517929.066,8209
1763686,1624517929.068,8210
1763687,1624517929.07,8211
1763688,1624517929.072,8212
1763689,1624517929.074,8213
1763690,1624517929.076,8213
1763691,1624517929.078,8213
1763692,1624517929.08,8213
1763693,1624517929.082,8213
1763694,1624517929.084,8213
1763695,1624517929.086,8213
1763696,1624517929.088,8213
1763697,1624517929.09,8213
1763698,1624517929.092,8213
1763699,1624517929.094,8212
1763700,1624517929.096,8211
1763701,1624517929.098,8211
1763702,1624517929.1,8210
1763703,1624517929.102,8210
1763704,1624517929.104,8209
1763705,1624517929.106,8209
1763706,1624517929.108,8209
1763707,1624517929.11,8209
1763708,1624517929.112,8208
1763709,1624517929.114,8208
1763710,1624517929.116,8207
1763711,1624517929.118,8206
1763712,1624517929.12,8206
1763713,1624517929.122,8205
1763714,1624517929.124,8205
1763715,1624517929.126,8204
1763716,1624517929.128,8204
1763717,1624517929.13,8203
1763718,1624517929.132,8202
1763719,1624517929.134,8201
1763720,1624517929.136,8200
1763721,1624517929.138,8199
1763722,1624517929.14,8198
1763723,1624517929.142,8197
1763724,1624517929.144,8197
1763725,1624517929.146,8196
1763726,1624517929.148,8195
1763727,1624517929.15,8194
1763728,1624517929.152,8193
1763729,1624517929.154,8192
1763730,1624517929.156,8191
1763731,1624517929.158,8190
1763732,1624517929.16,8189
1763733,1624517929.162,8188
1763734,1624517929.164,8188
1763735,1624517929.166,8187
1763736,1624517929.168,8186
1763737,1624517929.17,8185
1763738,1624517929.172,8184
1763739,1624517929.174,8184
1763740,1624517929.176,8183
1763741,1624517929.178,8182
1763742,1624517929.18,8181
1763743,1624517929.182,8181
1763744,1624517929.184,8180
1763745,1624517929.186,8180
1763746,1624517929.188,8180
1763747,1624517929.19,8180
1763748,1624517929.192,8180
1763749,1624517929.194,8181
1763750,1624517929.196,8181
1763751,1624517929.198,8181
1763752,1624517929.2,8181
1763753,1624517929.202,8182
1763754,1624517929.204,8182
1763755,1624517929.206,8183
1763756,1624517929.208,8184
1763757,1624517929.21,8185
1763758,1624517929.212,8186
1763759,1624517929.214,8187
1763760,1624517929.216,8188
1763761,1624517929.218,8189
1763762,1624517929.22,8190
1763763,1624517929.222,8191
1763764,1624517929.224,8193
1763765,1624517929.226,8194
1763766,1624517929.228,8195
1763767,1624517929.23,8196
1763768,1624517929.232,8197
1763769,1624517929.234,8198
1763770,1624517929.236,8199
1763771,1624517929.238,8200
1763772,1624517929.24,8202
1763773,1624517929.242,8203
1763774,1624517929.244,8204
1763775,1624517929.246,8205
1763776,1624517929.248,8206
1763777,1624517929.25,8207
1763778,1624517929.252,8208
1763779,1624517929.254,8210
1763780,1624517929.256,8211
1763781,1624517929.258,8211
1763782,1624517929.26,8212
1763783,1624517929.262,8213
1763784,1624517929.264,8214
1763785,1624517929.266,8214
1763786,1624517929.268,8215
1763787,1624517929.27,8215
1763788,1624517929.272,8215
1763789,1624517929.274,8215
1763790,1624517929.276,8215
1763791,1624517929.278,8214
1763792,1624517929.28,8214
1763793,1624517929.282,8214
1763794,1624517929.284,8215
1763795,1624517929.286,8216
1763796,1624517929.288,8216
1763797,1624517929.29,8216
1763798,1624517929.292,8216
1763799,1624517929.294,8216
1763800,1624517929.296,8217
1763801,1624517929.298,8218
1763802,1624517929.3,8219
1763803,1624517929.302,8222
1763804,1624517929.304,8223
1763805,1624517929.306,8225
1763806,1624517929.308,8227
1763807,1624517929.31,8229
1763808,1624517929.312,8232
1763809,1624517929.314,8236
1763810,1624517929.316,8238
1763811,1624517929.318,8241
1763812,1624517929.32,8243
1763813,1624517929.322,8245
1763814,1624517929.324,8247
1763815,1624517929.326,8248
1763816,1624517929.328,8248
1763817,1624517929.33,8246
1763818,1624517929.332,8244
1763819,1624517929.334,8241
1763820,1624517929.336,8237
1763821,1624517929.338,8233
1763822,1624517929.34,8229
1763823,1624517929.342,8225
1763824,1624517929.344,8221
1763825,1624517929.346,8218
1763826,1624517929.348,8214
1763827,1624517929.35,8210
1763828,1624517929.352,8206
1763829,1624517929.354,8204
1763830,1624517929.356,8202
1763831,1624517929.358,8201
1763832,1624517929.36,8200
1763833,1624517929.362,8200
1763834,1624517929.364,8200
1763835,1624517929.366,8200
1763836,1624517929.368,8200
1763837,1624517929.37,8200
1763838,1624517929.372,8200
1763839,1624517929.374,8200
1763840,1624517929.376,8201
1763841,1624517929.378,8201
1763842,1624517929.38,8201
1763843,1624517929.382,8200
1763844,1624517929.384,8199
1763845,1624517929.386,8199
1763846,1624517929.388,8200
1763847,1624517929.39,8201
1763848,1624517929.392,8201
1763849,1624517929.394,8201
1763850,1624517929.396,8201
1763851,1624517929.398,8200
1763852,1624517929.4,8199
1763853,1624517929.402,8197
1763854,1624517929.404,8195
1763855,1624517929.406,8191
1763856,1624517929.408,8189
1763857,1624517929.41,8189
1763858,1624517929.412,8195
1763859,1624517929.414,8209
1763860,1624517929.416,8233
1763861,1624517929.418,8268
1763862,1624517929.42,8312
1763863,1624517929.422,8361
1763864,1624517929.424,8409
1763865,1624517929.426,8440
1763866,1624517929.428,8430
1763867,1624517929.43,8369
1763868,1624517929.432,8279
1763869,1624517929.434,8188
1763870,1624517929.436,8115
1763871,1624517929.438,8064
1763872,1624517929.44,8032
1763873,1624517929.442,8015
1763874,1624517929.444,8000
1763875,1624517929.446,7971
1763876,1624517929.448,7918
1763877,1624517929.45,7850
1763878,1624517929.452,7789
1763879,1624517929.454,7757
1763880,1624517929.456,7768
1763881,1624517929.458,7819
1763882,1624517929.46,7900
1763883,1624517929.462,7993
1763884,1624517929.464,8075
1763885,1624517929.466,8136
1763886,1624517929.468,8174
1763887,1624517929.47,8194
1763888,1624517929.472,8203
1763889,1624517929.474,8205
1763890,1624517929.476,8204
1763891,1624517929.478,8203
1763892,1624517929.48,8203
1763893,1624517929.482,8204
1763894,1624517929.484,8205
1763895,1624517929.486,8206
1763896,1624517929.488,8207
1763897,1624517929.49,8208
1763898,1624517929.492,8209
1763899,1624517929.494,8209
1763900,1624517929.496,8209
1763901,1624517929.498,8209
1763902,1624517929.5,8210
1763903,1624517929.502,8210
1763904,1624517929.504,8210
1763905,1624517929.506,8210
1763906,1624517929.508,8210
1763907,1624517929.51,8210
1763908,1624517929.512,8209
1763909,1624517929.514,8209
1763910,1624517929.516,8208
1763911,1624517929.518,8208
1763912,1624517929.52,8207
1763913,1624517929.522,8207
1763914,1624517929.524,8207
1763915,1624517929.526,8206
1763916,1624517929.528,8206
1763917,1624517929.53,8205
1763918,1624517929.532,8205
1763919,1624517929.534,8204
1763920,1624517929.536,8203
1763921,1624517929.538,8202
1763922,1624517929.54,8202
1763923,1624517929.542,8201
1763924,1624517929.544,8201
1763925,1624517929.546,8200
1763926,1624517929.548,8200
1763927,1624517929.55,8199
1763928,1624517929.552,8199
1763929,1624517929.554,8198
1763930,1624517929.556,8197
1763931,1624517929.558,8196
1763932,1624517929.56,8194
1763933,1624517929.562,8193
1763934,1624517929.564,8192
1763935,1624517929.566,8191
1763936,1624517929.568,8191
1763937,1624517929.57,8190
1763938,1624517929.572,8189
1763939,1624517929.574,8188
1763940,1624517929.576,8187
1763941,1624517929.578,8186
1763942,1624517929.58,8185
1763943,1624517929.582,8184
1763944,1624517929.584,8183
1763945,1624517929.586,8183
1763946,1624517929.588,8182
1763947,1624517929.59,8181
1763948,1624517929.592,8180
1763949,1624517929.594,8179
1763950,1624517929.596,8179
1763951,1624517929.598,8178
1763952,1624517929.6,8178
1763953,1624517929.602,8179
1763954,1624517929.604,8179
1763955,1624517929.606,8179
1763956,1624517929.608,8179
1763957,1624517929.61,8179
1763958,1624517929.612,8179
1763959,1624517929.614,8180
1763960,1624517929.616,8180
1763961,1624517929.618,8181
1763962,1624517929.62,8182
1763963,1624517929.622,8182
1763964,1624517929.624,8183
1763965,1624517929.626,8184
1763966,1624517929.628,8185
1763967,1624517929.63,8186
1763968,1624517929.632,8187
1763969,1624517929.634,8188
1763970,1624517929.636,8189
1763971,1624517929.638,8191
1763972,1624517929.64,8192
1763973,1624517929.642,8193
1763974,1624517929.644,8194
1763975,1624517929.646,8195
1763976,1624517929.648,8196
1763977,1624517929.65,8197
1763978,1624517929.652,8199
1763979,1624517929.654,8200
1763980,1624517929.656,8202
1763981,1624517929.658,8203
1763982,1624517929.66,8204
1763983,1624517929.662,8205
1763984,1624517929.664,8206
1763985,1624517929.666,8208
1763986,1624517929.668,8209
1763987,1624517929.67,8210
1763988,1624517929.672,8211
1763989,1624517929.674,8212
1763990,1624517929.676,8213
1763991,1624517929.678,8213
1763992,1624517929.68,8213
1763993,1624517929.682,8214
1763994,1624517929.684,8214
1763995,1624517929.686,8215
1763996,1624517929.688,8216
1763997,1624517929.69,8217
1763998,1624517929.692,8217
1763999,1624517929.694,8217
1764000,1624517929.696,8217
1764001,1624517929.698,8217
1764002,1624517929.7,8216
1764003,1624517929.702,8216
1764004,1624517929.704,8216
1764005,1624517929.706,8217
1764006,1624517929.708,8217
1764007,1624517929.71,8217
1764008,1624517929.712,8217
1764009,1624517929.714,8218
1764010,1624517929.716,8219
1764011,1624517929.718,8220
1764012,1624517929.72,8222
1764013,1624517929.722,8225
1764014,1624517929.724,8227
1764015,1624517929.726,8230
1764016,1624517929.728,8233
1764017,1624517929.73,8236
1764018,1624517929.732,8239
1764019,1624517929.734,8242
1764020,1624517929.736,8244
1764021,1624517929.738,8247
1764022,1624517929.74,8249
1764023,1624517929.742,8251
1764024,1624517929.744,8251
1764025,1624517929.746,8251
1764026,1624517929.748,8250
1764027,1624517929.75,8248
1764028,1624517929.752,8245
1764029,1624517929.754,8241
1764030,1624517929.756,8237
1764031,1624517929.758,8232
1764032,1624517929.76,8228
1764033,1624517929.762,8224
1764034,1624517929.764,8220
1764035,1624517929.766,8216
1764036,1624517929.768,8212
1764037,1624517929.77,8209
1764038,1624517929.772,8207
1764039,1624517929.774,8205
1764040,1624517929.776,8204
1764041,1624517929.778,8203
1764042,1624517929.78,8203
1764043,1624517929.782,8203
1764044,1624517929.784,8203
1764045,1624517929.786,8203
1764046,1624517929.788,8203
1764047,1624517929.79,8203
1764048,1624517929.792,8203
1764049,1624517929.794,8202
1764050,1624517929.796,8202
1764051,1624517929.798,8202
1764052,1624517929.8,8202
1764053,1624517929.802,8203
1764054,1624517929.804,8203
1764055,1624517929.806,8203
1764056,1624517929.808,8203
1764057,1624517929.81,8203
1764058,1624517929.812,8203
1764059,1624517929.814,8202
1764060,1624517929.816,8202
1764061,1624517929.818,8201
1764062,1624517929.82,8199
1764063,1624517929.822,8196
1764064,1624517929.824,8192
1764065,1624517929.826,8190
1764066,1624517929.828,8192
1764067,1624517929.83,8200
1764068,1624517929.832,8218
1764069,1624517929.834,8246
1764070,1624517929.836,8283
1764071,1624517929.838,8325
1764072,1624517929.84,8371
1764073,1624517929.842,8416
1764074,1624517929.844,8438
1764075,1624517929.846,8413
1764076,1624517929.848,8343
1764077,1624517929.85,8252
1764078,1624517929.852,8169
1764079,1624517929.854,8104
1764080,1624517929.856,8060
1764081,1624517929.858,8034
1764082,1624517929.86,8022
1764083,1624517929.862,8006
1764084,1624517929.864,7970
1764085,1624517929.866,7909
1764086,1624517929.868,7838
1764087,1624517929.87,7780
1764088,1624517929.872,7758
1764089,1624517929.874,7780
1764090,1624517929.876,7839
1764091,1624517929.878,7924
1764092,1624517929.88,8012
1764093,1624517929.882,8087
1764094,1624517929.884,8142
1764095,1624517929.886,8177
1764096,1624517929.888,8197
1764097,1624517929.89,8205
1764098,1624517929.892,8208
1764099,1624517929.894,8207
1764100,1624517929.896,8207
1764101,1624517929.898,8207
1764102,1624517929.9,8208
1764103,1624517929.902,8208
1764104,1624517929.904,8209
1764105,1624517929.906,8210
1764106,1624517929.908,8211
1764107,1624517929.91,8212
1764108,1624517929.912,8212
1764109,1624517929.914,8212
1764110,1624517929.916,8213
1764111,1624517929.918,8213
1764112,1624517929.92,8213
1764113,1624517929.922,8213
1764114,1624517929.924,8213
1764115,1624517929.926,8213
1764116,1624517929.928,8213
1764117,1624517929.93,8213
1764118,1624517929.932,8213
1764119,1624517929.934,8212
1764120,1624517929.936,8211
1764121,1624517929.938,8211
1764122,1624517929.94,8210
1764123,1624517929.942,8210
1764124,1624517929.944,8209
1764125,1624517929.946,8208
1764126,1624517929.948,8207
1764127,1624517929.95,8206
1764128,1624517929.952,8205
1764129,1624517929.954,8205
1764130,1624517929.956,8205
1764131,1624517929.958,8204
1764132,1624517929.96,8203
1764133,1624517929.962,8202
1764134,1624517929.964,8202
1764135,1624517929.966,8201
1764136,1624517929.968,8201
1764137,1624517929.97,8200
1764138,1624517929.972,8199
1764139,1624517929.974,8199
1764140,1624517929.976,8198
1764141,1624517929.978,8197
1764142,1624517929.98,8197
1764143,1624517929.982,8196
1764144,1624517929.984,8195
1764145,1624517929.986,8194
1764146,1624517929.988,8193
1764147,1624517929.99,8193
1764148,1624517929.992,8192
1764149,1624517929.994,8191
1764150,1624517929.996,8191
1764151,1624517929.998,8190
1764152,1624517930.0,8189
1764153,1624517930.002,8188
1764154,1624517930.004,8188
1764155,1624517930.006,8187
1764156,1624517930.008,8186
1764157,1624517930.01,8186
1764158,1624517930.012,8186
1764159,1624517930.014,8185
1764160,1624517930.016,8185
1764161,1624517930.018,8185
1764162,1624517930.02,8185
1764163,1624517930.022,8185
1764164,1624517930.024,8185
1764165,1624517930.026,8185
1764166,1624517930.028,8185
1764167,1624517930.03,8185
1764168,1624517930.032,8186
1764169,1624517930.034,8187
1764170,1624517930.036,8188
1764171,1624517930.038,8189
1764172,1624517930.04,8189
1764173,1624517930.042,8190
1764174,1624517930.044,8191
1764175,1624517930.046,8192
1764176,1624517930.048,8193
1764177,1624517930.05,8194
1764178,1624517930.052,8195
1764179,1624517930.054,8196
1764180,1624517930.056,8197
1764181,1624517930.058,8198
1764182,1624517930.06,8199
1764183,1624517930.062,8200
1764184,1624517930.064,8201
1764185,1624517930.066,8202
1764186,1624517930.068,8203
1764187,1624517930.07,8205
1764188,1624517930.072,8206
1764189,1624517930.074,8208
1764190,1624517930.076,8209
1764191,1624517930.078,8210
1764192,1624517930.08,8211
1764193,1624517930.082,8212
1764194,1624517930.084,8212
1764195,1624517930.086,8213
1764196,1624517930.088,8213
1764197,1624517930.09,8214
1764198,1624517930.092,8215
1764199,1624517930.094,8216
1764200,1624517930.096,8216
1764201,1624517930.098,8217
1764202,1624517930.1,8217
1764203,1624517930.102,8217
1764204,1624517930.104,8217
1764205,1624517930.106,8218
1764206,1624517930.108,8218
1764207,1624517930.11,8218
1764208,1624517930.112,8218
1764209,1624517930.114,8217
1764210,1624517930.116,8217
1764211,1624517930.118,8217
1764212,1624517930.12,8217
1764213,1624517930.122,8217
1764214,1624517930.124,8217
1764215,1624517930.126,8217
1764216,1624517930.128,8218
1764217,1624517930.13,8218
1764218,1624517930.132,8219
1764219,1624517930.134,8220
1764220,1624517930.136,8222
1764221,1624517930.138,8225
1764222,1624517930.14,8227
1764223,1624517930.142,8229
1764224,1624517930.144,8231
1764225,1624517930.146,8234
1764226,1624517930.148,8237
1764227,1624517930.15,8240
1764228,1624517930.152,8243
1764229,1624517930.154,8246
1764230,1624517930.156,8249
1764231,1624517930.158,8252
1764232,1624517930.16,8253
1764233,1624517930.162,8253
1764234,1624517930.164,8252
1764235,1624517930.166,8250
1764236,1624517930.168,8248
1764237,1624517930.17,8245
1764238,1624517930.172,8241
1764239,1624517930.174,8236
1764240,1624517930.176,8232
1764241,1624517930.178,8228
1764242,1624517930.18,8225
1764243,1624517930.182,8221
1764244,1624517930.184,8217
1764245,1624517930.186,8213
1764246,1624517930.188,8210
1764247,1624517930.19,8207
1764248,1624517930.192,8206
1764249,1624517930.194,8205
1764250,1624517930.196,8205
1764251,1624517930.198,8205
1764252,1624517930.2,8205
1764253,1624517930.202,8204
1764254,1624517930.204,8204
1764255,1624517930.206,8204
1764256,1624517930.208,8204
1764257,1624517930.21,8204
1764258,1624517930.212,8204
1764259,1624517930.214,8204
1764260,1624517930.216,8204
1764261,1624517930.218,8204
1764262,1624517930.22,8204
1764263,1624517930.222,8204
1764264,1624517930.224,8204
1764265,1624517930.226,8204
1764266,1624517930.228,8204
1764267,1624517930.23,8204
1764268,1624517930.232,8203
1764269,1624517930.234,8202
1764270,1624517930.236,8200
1764271,1624517930.238,8197
1764272,1624517930.24,8193
1764273,1624517930.242,8190
1764274,1624517930.244,8189
1764275,1624517930.246,8193
1764276,1624517930.248,8205
1764277,1624517930.25,8225
1764278,1624517930.252,8254
1764279,1624517930.254,8293
1764280,1624517930.256,8340
1764281,1624517930.258,8390
1764282,1624517930.26,8429
1764283,1624517930.262,8430
1764284,1624517930.264,8380
1764285,1624517930.266,8294
1764286,1624517930.268,8204
1764287,1624517930.27,8131
1764288,1624517930.272,8081
1764289,1624517930.274,8049
1764290,1624517930.276,8032
1764291,1624517930.278,8019
1764292,1624517930.28,7994
1764293,1624517930.282,7943
1764294,1624517930.284,7873
1764295,1624517930.286,7805
1764296,1624517930.288,7764
1764297,1624517930.29,7765
1764298,1624517930.292,7804
1764299,1624517930.294,7872
1764300,1624517930.296,7957
1764301,1624517930.298,8043
1764302,1624517930.3,8114
1764303,1624517930.302,8162
1764304,1624517930.304,8191
1764305,1624517930.306,8205
1764306,1624517930.308,8209
1764307,1624517930.31,8209
1764308,1624517930.312,8208
1764309,1624517930.314,8208
1764310,1624517930.316,8208
1764311,1624517930.318,8209
1764312,1624517930.32,8210
1764313,1624517930.322,8210
1764314,1624517930.324,8211
1764315,1624517930.326,8212
1764316,1624517930.328,8212
1764317,1624517930.33,8213
1764318,1624517930.332,8213
