,times,values
3520000,1636765044.384,8183
3520001,1636765044.386,8183
3520002,1636765044.388,8184
3520003,1636765044.39,8186
3520004,1636765044.392,8188
3520005,1636765044.394,8189
3520006,1636765044.396,8188
3520007,1636765044.398,8187
3520008,1636765044.4,8186
3520009,1636765044.402,8186
3520010,1636765044.404,8186
3520011,1636765044.406,8186
3520012,1636765044.408,8186
3520013,1636765044.41,8186
3520014,1636765044.412,8185
3520015,1636765044.414,8184
3520016,1636765044.416,8183
3520017,1636765044.418,8181
3520018,1636765044.42,8180
3520019,1636765044.422,8179
3520020,1636765044.424,8179
3520021,1636765044.426,8180
3520022,1636765044.428,8180
3520023,1636765044.43,8181
3520024,1636765044.432,8180
3520025,1636765044.434,8180
3520026,1636765044.436,8180
3520027,1636765044.438,8181
3520028,1636765044.44,8182
3520029,1636765044.442,8183
3520030,1636765044.444,8184
3520031,1636765044.446,8184
3520032,1636765044.448,8184
3520033,1636765044.45,8183
3520034,1636765044.452,8182
3520035,1636765044.454,8181
3520036,1636765044.456,8179
3520037,1636765044.458,8178
3520038,1636765044.46,8176
3520039,1636765044.462,8175
3520040,1636765044.464,8174
3520041,1636765044.466,8173
3520042,1636765044.468,8172
3520043,1636765044.47,8171
3520044,1636765044.472,8170
3520045,1636765044.474,8169
3520046,1636765044.476,8169
3520047,1636765044.478,8168
3520048,1636765044.48,8167
3520049,1636765044.482,8166
3520050,1636765044.484,8164
3520051,1636765044.486,8164
3520052,1636765044.488,8164
3520053,1636765044.49,8163
3520054,1636765044.492,8163
3520055,1636765044.494,8162
3520056,1636765044.496,8161
3520057,1636765044.498,8160
3520058,1636765044.5,8160
3520059,1636765044.502,8160
3520060,1636765044.504,8160
3520061,1636765044.506,8159
3520062,1636765044.508,8159
3520063,1636765044.51,8159
3520064,1636765044.512,8159
3520065,1636765044.514,8159
3520066,1636765044.516,8159
3520067,1636765044.518,8159
3520068,1636765044.52,8160
3520069,1636765044.522,8160
3520070,1636765044.524,8160
3520071,1636765044.526,8160
3520072,1636765044.528,8160
3520073,1636765044.53,8160
3520074,1636765044.532,8160
3520075,1636765044.534,8160
3520076,1636765044.536,8160
3520077,1636765044.538,8160
3520078,1636765044.54,8161
3520079,1636765044.542,8162
3520080,1636765044.544,8163
3520081,1636765044.546,8164
3520082,1636765044.548,8166
3520083,1636765044.55,8168
3520084,1636765044.552,8172
3520085,1636765044.554,8175
3520086,1636765044.556,8179
3520087,1636765044.558,8182
3520088,1636765044.56,8184
3520089,1636765044.562,8186
3520090,1636765044.564,8187
3520091,1636765044.566,8188
3520092,1636765044.568,8188
3520093,1636765044.57,8189
3520094,1636765044.572,8188
3520095,1636765044.574,8186
3520096,1636765044.576,8180
3520097,1636765044.578,8171
3520098,1636765044.58,8161
3520099,1636765044.582,8149
3520100,1636765044.584,8137
3520101,1636765044.586,8126
3520102,1636765044.588,8115
3520103,1636765044.59,8104
3520104,1636765044.592,8092
3520105,1636765044.594,8079
3520106,1636765044.596,8064
3520107,1636765044.598,8046
3520108,1636765044.6,8027
3520109,1636765044.602,8006
3520110,1636765044.604,7986
3520111,1636765044.606,7966
3520112,1636765044.608,7950
3520113,1636765044.61,7938
3520114,1636765044.612,7928
3520115,1636765044.614,7921
3520116,1636765044.616,7916
3520117,1636765044.618,7914
3520118,1636765044.62,7915
3520119,1636765044.622,7917
3520120,1636765044.624,7921
3520121,1636765044.626,7925
3520122,1636765044.628,7929
3520123,1636765044.63,7935
3520124,1636765044.632,7941
3520125,1636765044.634,7950
3520126,1636765044.636,7960
3520127,1636765044.638,7970
3520128,1636765044.64,7980
3520129,1636765044.642,7990
3520130,1636765044.644,8000
3520131,1636765044.646,8011
3520132,1636765044.648,8023
3520133,1636765044.65,8034
3520134,1636765044.652,8046
3520135,1636765044.654,8057
3520136,1636765044.656,8068
3520137,1636765044.658,8079
3520138,1636765044.66,8089
3520139,1636765044.662,8099
3520140,1636765044.664,8108
3520141,1636765044.666,8115
3520142,1636765044.668,8122
3520143,1636765044.67,8128
3520144,1636765044.672,8133
3520145,1636765044.674,8138
3520146,1636765044.676,8143
3520147,1636765044.678,8149
3520148,1636765044.68,8155
3520149,1636765044.682,8161
3520150,1636765044.684,8166
3520151,1636765044.686,8172
3520152,1636765044.688,8177
3520153,1636765044.69,8182
3520154,1636765044.692,8186
3520155,1636765044.694,8189
3520156,1636765044.696,8193
3520157,1636765044.698,8196
3520158,1636765044.7,8199
3520159,1636765044.702,8203
3520160,1636765044.704,8207
3520161,1636765044.706,8211
3520162,1636765044.708,8215
3520163,1636765044.71,8217
3520164,1636765044.712,8220
3520165,1636765044.714,8221
3520166,1636765044.716,8222
3520167,1636765044.718,8223
3520168,1636765044.72,8224
3520169,1636765044.722,8225
3520170,1636765044.724,8226
3520171,1636765044.726,8227
3520172,1636765044.728,8228
3520173,1636765044.73,8228
3520174,1636765044.732,8229
3520175,1636765044.734,8230
3520176,1636765044.736,8230
3520177,1636765044.738,8231
3520178,1636765044.74,8231
3520179,1636765044.742,8232
3520180,1636765044.744,8233
3520181,1636765044.746,8233
3520182,1636765044.748,8234
3520183,1636765044.75,8234
3520184,1636765044.752,8235
3520185,1636765044.754,8236
3520186,1636765044.756,8237
3520187,1636765044.758,8238
3520188,1636765044.76,8239
3520189,1636765044.762,8240
3520190,1636765044.764,8241
3520191,1636765044.766,8242
3520192,1636765044.768,8243
3520193,1636765044.77,8244
3520194,1636765044.772,8245
3520195,1636765044.774,8246
3520196,1636765044.776,8248
3520197,1636765044.778,8248
3520198,1636765044.78,8249
3520199,1636765044.782,8250
3520200,1636765044.784,8252
3520201,1636765044.786,8253
3520202,1636765044.788,8255
3520203,1636765044.79,8257
3520204,1636765044.792,8258
3520205,1636765044.794,8259
3520206,1636765044.796,8260
3520207,1636765044.798,8262
3520208,1636765044.8,8263
3520209,1636765044.802,8264
3520210,1636765044.804,8266
3520211,1636765044.806,8267
3520212,1636765044.808,8268
3520213,1636765044.81,8270
3520214,1636765044.812,8271
3520215,1636765044.814,8273
3520216,1636765044.816,8274
3520217,1636765044.818,8275
3520218,1636765044.82,8276
3520219,1636765044.822,8277
3520220,1636765044.824,8279
3520221,1636765044.826,8280
3520222,1636765044.828,8281
3520223,1636765044.83,8282
3520224,1636765044.832,8283
3520225,1636765044.834,8283
3520226,1636765044.836,8284
3520227,1636765044.838,8285
3520228,1636765044.84,8285
3520229,1636765044.842,8286
3520230,1636765044.844,8287
3520231,1636765044.846,8288
3520232,1636765044.848,8288
3520233,1636765044.85,8288
3520234,1636765044.852,8289
3520235,1636765044.854,8289
3520236,1636765044.856,8289
3520237,1636765044.858,8289
3520238,1636765044.86,8289
3520239,1636765044.862,8289
3520240,1636765044.864,8288
3520241,1636765044.866,8288
3520242,1636765044.868,8288
3520243,1636765044.87,8287
3520244,1636765044.872,8287
3520245,1636765044.874,8286
3520246,1636765044.876,8285
3520247,1636765044.878,8284
3520248,1636765044.88,8283
3520249,1636765044.882,8282
3520250,1636765044.884,8281
3520251,1636765044.886,8280
3520252,1636765044.888,8278
3520253,1636765044.89,8276
3520254,1636765044.892,8274
3520255,1636765044.894,8273
3520256,1636765044.896,8271
3520257,1636765044.898,8270
3520258,1636765044.9,8268
3520259,1636765044.902,8266
3520260,1636765044.904,8264
3520261,1636765044.906,8262
3520262,1636765044.908,8260
3520263,1636765044.91,8258
3520264,1636765044.912,8256
3520265,1636765044.914,8254
3520266,1636765044.916,8252
3520267,1636765044.918,8250
3520268,1636765044.92,8247
3520269,1636765044.922,8245
3520270,1636765044.924,8243
3520271,1636765044.926,8241
3520272,1636765044.928,8239
3520273,1636765044.93,8237
3520274,1636765044.932,8235
3520275,1636765044.934,8233
3520276,1636765044.936,8231
3520277,1636765044.938,8229
3520278,1636765044.94,8227
3520279,1636765044.942,8224
3520280,1636765044.944,8222
3520281,1636765044.946,8220
3520282,1636765044.948,8219
3520283,1636765044.95,8217
3520284,1636765044.952,8216
3520285,1636765044.954,8214
3520286,1636765044.956,8213
3520287,1636765044.958,8211
3520288,1636765044.96,8210
3520289,1636765044.962,8210
3520290,1636765044.964,8210
3520291,1636765044.966,8212
3520292,1636765044.968,8212
3520293,1636765044.97,8212
3520294,1636765044.972,8211
3520295,1636765044.974,8210
3520296,1636765044.976,8209
3520297,1636765044.978,8207
3520298,1636765044.98,8206
3520299,1636765044.982,8205
3520300,1636765044.984,8205
3520301,1636765044.986,8204
3520302,1636765044.988,8203
3520303,1636765044.99,8202
3520304,1636765044.992,8201
3520305,1636765044.994,8199
3520306,1636765044.996,8197
3520307,1636765044.998,8197
3520308,1636765045.0,8196
3520309,1636765045.002,8196
3520310,1636765045.004,8196
3520311,1636765045.006,8195
3520312,1636765045.008,8194
3520313,1636765045.01,8193
3520314,1636765045.012,8193
3520315,1636765045.014,8194
3520316,1636765045.016,8195
3520317,1636765045.018,8196
3520318,1636765045.02,8196
3520319,1636765045.022,8196
3520320,1636765045.024,8195
3520321,1636765045.026,8194
3520322,1636765045.028,8193
3520323,1636765045.03,8191
3520324,1636765045.032,8189
3520325,1636765045.034,8187
3520326,1636765045.036,8185
3520327,1636765045.038,8183
3520328,1636765045.04,8182
3520329,1636765045.042,8182
3520330,1636765045.044,8181
3520331,1636765045.046,8180
3520332,1636765045.048,8179
3520333,1636765045.05,8178
3520334,1636765045.052,8177
3520335,1636765045.054,8176
3520336,1636765045.056,8174
3520337,1636765045.058,8173
3520338,1636765045.06,8172
3520339,1636765045.062,8172
3520340,1636765045.064,8172
3520341,1636765045.066,8172
3520342,1636765045.068,8173
3520343,1636765045.07,8174
3520344,1636765045.072,8175
3520345,1636765045.074,8176
3520346,1636765045.076,8178
3520347,1636765045.078,8180
3520348,1636765045.08,8183
3520349,1636765045.082,8186
3520350,1636765045.084,8189
3520351,1636765045.086,8191
3520352,1636765045.088,8193
3520353,1636765045.09,8193
3520354,1636765045.092,8193
3520355,1636765045.094,8191
3520356,1636765045.096,8187
3520357,1636765045.098,8180
3520358,1636765045.1,8169
3520359,1636765045.102,8156
3520360,1636765045.104,8140
3520361,1636765045.106,8125
3520362,1636765045.108,8110
3520363,1636765045.11,8096
3520364,1636765045.112,8083
3520365,1636765045.114,8070
3520366,1636765045.116,8059
3520367,1636765045.118,8049
3520368,1636765045.12,8040
3520369,1636765045.122,8033
3520370,1636765045.124,8025
3520371,1636765045.126,8018
3520372,1636765045.128,8011
3520373,1636765045.13,8004
3520374,1636765045.132,7996
3520375,1636765045.134,7984
3520376,1636765045.136,7973
3520377,1636765045.138,7963
3520378,1636765045.14,7955
3520379,1636765045.142,7950
3520380,1636765045.144,7947
3520381,1636765045.146,7946
3520382,1636765045.148,7948
3520383,1636765045.15,7951
3520384,1636765045.152,7954
3520385,1636765045.154,7958
3520386,1636765045.156,7961
3520387,1636765045.158,7964
3520388,1636765045.16,7968
3520389,1636765045.162,7972
3520390,1636765045.164,7976
3520391,1636765045.166,7982
3520392,1636765045.168,7988
3520393,1636765045.17,7996
3520394,1636765045.172,8003
3520395,1636765045.174,8012
3520396,1636765045.176,8021
3520397,1636765045.178,8030
3520398,1636765045.18,8038
3520399,1636765045.182,8046
3520400,1636765045.184,8053
3520401,1636765045.186,8058
3520402,1636765045.188,8064
3520403,1636765045.19,8070
3520404,1636765045.192,8075
3520405,1636765045.194,8080
3520406,1636765045.196,8084
3520407,1636765045.198,8088
3520408,1636765045.2,8092
3520409,1636765045.202,8097
3520410,1636765045.204,8102
3520411,1636765045.206,8108
3520412,1636765045.208,8114
3520413,1636765045.21,8121
3520414,1636765045.212,8128
3520415,1636765045.214,8135
3520416,1636765045.216,8141
3520417,1636765045.218,8147
3520418,1636765045.22,8153
3520419,1636765045.222,8159
3520420,1636765045.224,8165
3520421,1636765045.226,8170
3520422,1636765045.228,8176
3520423,1636765045.23,8181
3520424,1636765045.232,8186
3520425,1636765045.234,8191
3520426,1636765045.236,8197
3520427,1636765045.238,8203
3520428,1636765045.24,8208
3520429,1636765045.242,8213
3520430,1636765045.244,8218
3520431,1636765045.246,8223
3520432,1636765045.248,8226
3520433,1636765045.25,8229
3520434,1636765045.252,8231
3520435,1636765045.254,8232
3520436,1636765045.256,8234
3520437,1636765045.258,8236
3520438,1636765045.26,8237
3520439,1636765045.262,8239
3520440,1636765045.264,8240
3520441,1636765045.266,8241
3520442,1636765045.268,8243
3520443,1636765045.27,8244
3520444,1636765045.272,8245
3520445,1636765045.274,8246
3520446,1636765045.276,8248
3520447,1636765045.278,8249
3520448,1636765045.28,8250
3520449,1636765045.282,8251
3520450,1636765045.284,8252
3520451,1636765045.286,8253
3520452,1636765045.288,8254
3520453,1636765045.29,8256
3520454,1636765045.292,8257
3520455,1636765045.294,8258
3520456,1636765045.296,8259
3520457,1636765045.298,8261
3520458,1636765045.3,8262
3520459,1636765045.302,8263
3520460,1636765045.304,8264
3520461,1636765045.306,8266
3520462,1636765045.308,8267
3520463,1636765045.31,8269
3520464,1636765045.312,8270
3520465,1636765045.314,8271
3520466,1636765045.316,8273
3520467,1636765045.318,8274
3520468,1636765045.32,8276
3520469,1636765045.322,8277
3520470,1636765045.324,8278
3520471,1636765045.326,8279
3520472,1636765045.328,8279
3520473,1636765045.33,8280
3520474,1636765045.332,8282
3520475,1636765045.334,8283
3520476,1636765045.336,8285
3520477,1636765045.338,8286
3520478,1636765045.34,8287
3520479,1636765045.342,8288
3520480,1636765045.344,8289
3520481,1636765045.346,8290
3520482,1636765045.348,8291
3520483,1636765045.35,8292
3520484,1636765045.352,8293
3520485,1636765045.354,8294
3520486,1636765045.356,8295
3520487,1636765045.358,8296
3520488,1636765045.36,8296
3520489,1636765045.362,8297
3520490,1636765045.364,8298
3520491,1636765045.366,8299
3520492,1636765045.368,8300
3520493,1636765045.37,8301
3520494,1636765045.372,8301
3520495,1636765045.374,8302
3520496,1636765045.376,8302
3520497,1636765045.378,8303
3520498,1636765045.38,8303
3520499,1636765045.382,8303
3520500,1636765045.384,8304
3520501,1636765045.386,8304
3520502,1636765045.388,8304
3520503,1636765045.39,8304
3520504,1636765045.392,8304
3520505,1636765045.394,8303
3520506,1636765045.396,8303
3520507,1636765045.398,8302
3520508,1636765045.4,8302
3520509,1636765045.402,8301
3520510,1636765045.404,8301
3520511,1636765045.406,8300
3520512,1636765045.408,8299
3520513,1636765045.41,8297
3520514,1636765045.412,8296
3520515,1636765045.414,8295
3520516,1636765045.416,8294
3520517,1636765045.418,8293
3520518,1636765045.42,8291
3520519,1636765045.422,8289
3520520,1636765045.424,8288
3520521,1636765045.426,8286
3520522,1636765045.428,8284
3520523,1636765045.43,8282
3520524,1636765045.432,8280
3520525,1636765045.434,8278
3520526,1636765045.436,8276
3520527,1636765045.438,8274
3520528,1636765045.44,8272
3520529,1636765045.442,8270
3520530,1636765045.444,8267
3520531,1636765045.446,8265
3520532,1636765045.448,8263
3520533,1636765045.45,8260
3520534,1636765045.452,8257
3520535,1636765045.454,8255
3520536,1636765045.456,8252
3520537,1636765045.458,8250
3520538,1636765045.46,8248
3520539,1636765045.462,8246
3520540,1636765045.464,8243
3520541,1636765045.466,8241
3520542,1636765045.468,8239
3520543,1636765045.47,8236
3520544,1636765045.472,8234
3520545,1636765045.474,8231
3520546,1636765045.476,8229
3520547,1636765045.478,8227
3520548,1636765045.48,8225
3520549,1636765045.482,8223
3520550,1636765045.484,8221
3520551,1636765045.486,8219
3520552,1636765045.488,8217
3520553,1636765045.49,8215
3520554,1636765045.492,8212
3520555,1636765045.494,8210
3520556,1636765045.496,8208
3520557,1636765045.498,8205
3520558,1636765045.5,8204
3520559,1636765045.502,8202
3520560,1636765045.504,8200
3520561,1636765045.506,8199
3520562,1636765045.508,8197
3520563,1636765045.51,8196
3520564,1636765045.512,8194
3520565,1636765045.514,8192
3520566,1636765045.516,8191
3520567,1636765045.518,8190
3520568,1636765045.52,8189
3520569,1636765045.522,8188
3520570,1636765045.524,8186
3520571,1636765045.526,8185
3520572,1636765045.528,8184
3520573,1636765045.53,8184
3520574,1636765045.532,8183
3520575,1636765045.534,8182
3520576,1636765045.536,8182
3520577,1636765045.538,8182
3520578,1636765045.54,8184
3520579,1636765045.542,8186
3520580,1636765045.544,8187
3520581,1636765045.546,8188
3520582,1636765045.548,8188
3520583,1636765045.55,8188
3520584,1636765045.552,8188
3520585,1636765045.554,8188
3520586,1636765045.556,8188
3520587,1636765045.558,8188
3520588,1636765045.56,8189
3520589,1636765045.562,8188
3520590,1636765045.564,8188
3520591,1636765045.566,8187
3520592,1636765045.568,8186
3520593,1636765045.57,8185
3520594,1636765045.572,8184
3520595,1636765045.574,8184
3520596,1636765045.576,8184
3520597,1636765045.578,8185
3520598,1636765045.58,8185
3520599,1636765045.582,8186
3520600,1636765045.584,8185
3520601,1636765045.586,8186
3520602,1636765045.588,8187
3520603,1636765045.59,8189
3520604,1636765045.592,8190
3520605,1636765045.594,8192
3520606,1636765045.596,8193
3520607,1636765045.598,8193
3520608,1636765045.6,8194
3520609,1636765045.602,8194
3520610,1636765045.604,8194
3520611,1636765045.606,8194
3520612,1636765045.608,8195
3520613,1636765045.61,8195
3520614,1636765045.612,8196
3520615,1636765045.614,8197
3520616,1636765045.616,8201
3520617,1636765045.618,8204
3520618,1636765045.62,8206
3520619,1636765045.622,8208
3520620,1636765045.624,8210
3520621,1636765045.626,8211
3520622,1636765045.628,8209
3520623,1636765045.63,8207
3520624,1636765045.632,8203
3520625,1636765045.634,8198
3520626,1636765045.636,8191
3520627,1636765045.638,8180
3520628,1636765045.64,8165
3520629,1636765045.642,8149
3520630,1636765045.644,8131
3520631,1636765045.646,8114
3520632,1636765045.648,8099
3520633,1636765045.65,8086
3520634,1636765045.652,8072
3520635,1636765045.654,8059
3520636,1636765045.656,8047
3520637,1636765045.658,8036
3520638,1636765045.66,8026
3520639,1636765045.662,8018
3520640,1636765045.664,8011
3520641,1636765045.666,8004
3520642,1636765045.668,7996
3520643,1636765045.67,7986
3520644,1636765045.672,7977
3520645,1636765045.674,7969
3520646,1636765045.676,7962
3520647,1636765045.678,7957
3520648,1636765045.68,7954
3520649,1636765045.682,7954
3520650,1636765045.684,7956
3520651,1636765045.686,7959
3520652,1636765045.688,7963
3520653,1636765045.69,7966
3520654,1636765045.692,7968
3520655,1636765045.694,7971
3520656,1636765045.696,7974
3520657,1636765045.698,7978
3520658,1636765045.7,7982
3520659,1636765045.702,7987
3520660,1636765045.704,7994
3520661,1636765045.706,8001
3520662,1636765045.708,8008
3520663,1636765045.71,8017
3520664,1636765045.712,8026
3520665,1636765045.714,8035
3520666,1636765045.716,8042
3520667,1636765045.718,8048
3520668,1636765045.72,8053
3520669,1636765045.722,8058
3520670,1636765045.724,8064
3520671,1636765045.726,8070
3520672,1636765045.728,8077
3520673,1636765045.73,8083
3520674,1636765045.732,8088
3520675,1636765045.734,8093
3520676,1636765045.736,8097
3520677,1636765045.738,8101
3520678,1636765045.74,8106
3520679,1636765045.742,8112
3520680,1636765045.744,8117
3520681,1636765045.746,8124
3520682,1636765045.748,8130
3520683,1636765045.75,8136
3520684,1636765045.752,8142
3520685,1636765045.754,8147
3520686,1636765045.756,8153
3520687,1636765045.758,8159
3520688,1636765045.76,8164
3520689,1636765045.762,8169
3520690,1636765045.764,8175
3520691,1636765045.766,8180
3520692,1636765045.768,8186
3520693,1636765045.77,8192
3520694,1636765045.772,8198
3520695,1636765045.774,8205
3520696,1636765045.776,8212
3520697,1636765045.778,8217
3520698,1636765045.78,8221
3520699,1636765045.782,8224
3520700,1636765045.784,8227
3520701,1636765045.786,8229
3520702,1636765045.788,8231
3520703,1636765045.79,8232
3520704,1636765045.792,8234
3520705,1636765045.794,8235
3520706,1636765045.796,8236
3520707,1636765045.798,8238
3520708,1636765045.8,8239
3520709,1636765045.802,8240
3520710,1636765045.804,8241
3520711,1636765045.806,8242
3520712,1636765045.808,8243
3520713,1636765045.81,8244
3520714,1636765045.812,8245
3520715,1636765045.814,8246
3520716,1636765045.816,8247
3520717,1636765045.818,8247
3520718,1636765045.82,8249
3520719,1636765045.822,8250
3520720,1636765045.824,8251
3520721,1636765045.826,8252
3520722,1636765045.828,8253
3520723,1636765045.83,8254
3520724,1636765045.832,8255
3520725,1636765045.834,8256
3520726,1636765045.836,8257
3520727,1636765045.838,8259
3520728,1636765045.84,8260
3520729,1636765045.842,8262
3520730,1636765045.844,8263
3520731,1636765045.846,8264
3520732,1636765045.848,8265
3520733,1636765045.85,8266
3520734,1636765045.852,8267
3520735,1636765045.854,8268
3520736,1636765045.856,8270
3520737,1636765045.858,8272
3520738,1636765045.86,8273
3520739,1636765045.862,8274
3520740,1636765045.864,8275
3520741,1636765045.866,8276
3520742,1636765045.868,8277
3520743,1636765045.87,8278
3520744,1636765045.872,8280
3520745,1636765045.874,8281
3520746,1636765045.876,8283
3520747,1636765045.878,8284
3520748,1636765045.88,8285
3520749,1636765045.882,8286
3520750,1636765045.884,8287
3520751,1636765045.886,8288
3520752,1636765045.888,8289
3520753,1636765045.89,8290
3520754,1636765045.892,8290
3520755,1636765045.894,8291
3520756,1636765045.896,8292
3520757,1636765045.898,8293
3520758,1636765045.9,8295
3520759,1636765045.902,8296
3520760,1636765045.904,8297
3520761,1636765045.906,8298
3520762,1636765045.908,8299
3520763,1636765045.91,8300
3520764,1636765045.912,8300
3520765,1636765045.914,8301
3520766,1636765045.916,8301
3520767,1636765045.918,8301
3520768,1636765045.92,8301
3520769,1636765045.922,8301
3520770,1636765045.924,8302
3520771,1636765045.926,8302
3520772,1636765045.928,8301
3520773,1636765045.93,8301
3520774,1636765045.932,8301
3520775,1636765045.934,8300
3520776,1636765045.936,8300
3520777,1636765045.938,8299
3520778,1636765045.94,8299
3520779,1636765045.942,8298
3520780,1636765045.944,8297
3520781,1636765045.946,8296
3520782,1636765045.948,8294
3520783,1636765045.95,8293
3520784,1636765045.952,8292
3520785,1636765045.954,8290
3520786,1636765045.956,8289
3520787,1636765045.958,8288
3520788,1636765045.96,8286
3520789,1636765045.962,8285
3520790,1636765045.964,8283
3520791,1636765045.966,8281
3520792,1636765045.968,8279
3520793,1636765045.97,8277
3520794,1636765045.972,8275
3520795,1636765045.974,8273
3520796,1636765045.976,8271
3520797,1636765045.978,8269
3520798,1636765045.98,8267
3520799,1636765045.982,8265
3520800,1636765045.984,8262
3520801,1636765045.986,8260
3520802,1636765045.988,8258
3520803,1636765045.99,8255
3520804,1636765045.992,8253
3520805,1636765045.994,8250
3520806,1636765045.996,8248
3520807,1636765045.998,8246
3520808,1636765046.0,8244
3520809,1636765046.002,8242
3520810,1636765046.004,8240
3520811,1636765046.006,8237
3520812,1636765046.008,8234
3520813,1636765046.01,8232
3520814,1636765046.012,8229
3520815,1636765046.014,8227
3520816,1636765046.016,8225
3520817,1636765046.018,8223
3520818,1636765046.02,8221
3520819,1636765046.022,8219
3520820,1636765046.024,8217
3520821,1636765046.026,8215
3520822,1636765046.028,8213
3520823,1636765046.03,8211
3520824,1636765046.032,8209
3520825,1636765046.034,8208
3520826,1636765046.036,8206
3520827,1636765046.038,8204
3520828,1636765046.04,8202
3520829,1636765046.042,8201
3520830,1636765046.044,8199
3520831,1636765046.046,8198
3520832,1636765046.048,8196
3520833,1636765046.05,8195
3520834,1636765046.052,8193
3520835,1636765046.054,8192
3520836,1636765046.056,8191
3520837,1636765046.058,8189
3520838,1636765046.06,8188
3520839,1636765046.062,8186
3520840,1636765046.064,8185
3520841,1636765046.066,8184
3520842,1636765046.068,8183
3520843,1636765046.07,8183
3520844,1636765046.072,8182
3520845,1636765046.074,8181
3520846,1636765046.076,8180
3520847,1636765046.078,8180
3520848,1636765046.08,8179
3520849,1636765046.082,8179
3520850,1636765046.084,8178
3520851,1636765046.086,8177
3520852,1636765046.088,8176
3520853,1636765046.09,8176
3520854,1636765046.092,8175
3520855,1636765046.094,8174
3520856,1636765046.096,8174
3520857,1636765046.098,8174
3520858,1636765046.1,8173
3520859,1636765046.102,8173
3520860,1636765046.104,8173
3520861,1636765046.106,8172
3520862,1636765046.108,8172
3520863,1636765046.11,8171
3520864,1636765046.112,8171
3520865,1636765046.114,8173
3520866,1636765046.116,8175
3520867,1636765046.118,8178
3520868,1636765046.12,8180
3520869,1636765046.122,8181
3520870,1636765046.124,8182
3520871,1636765046.126,8182
3520872,1636765046.128,8182
3520873,1636765046.13,8183
3520874,1636765046.132,8183
3520875,1636765046.134,8184
3520876,1636765046.136,8185
3520877,1636765046.138,8185
3520878,1636765046.14,8185
3520879,1636765046.142,8184
3520880,1636765046.144,8184
3520881,1636765046.146,8184
3520882,1636765046.148,8183
3520883,1636765046.15,8184
3520884,1636765046.152,8184
3520885,1636765046.154,8185
3520886,1636765046.156,8185
3520887,1636765046.158,8185
3520888,1636765046.16,8185
3520889,1636765046.162,8185
3520890,1636765046.164,8186
3520891,1636765046.166,8188
3520892,1636765046.168,8190
3520893,1636765046.17,8191
3520894,1636765046.172,8191
3520895,1636765046.174,8191
3520896,1636765046.176,8191
3520897,1636765046.178,8190
3520898,1636765046.18,8190
3520899,1636765046.182,8189
3520900,1636765046.184,8188
3520901,1636765046.186,8187
3520902,1636765046.188,8185
3520903,1636765046.19,8184
3520904,1636765046.192,8183
3520905,1636765046.194,8183
3520906,1636765046.196,8182
3520907,1636765046.198,8182
3520908,1636765046.2,8182
3520909,1636765046.202,8181
3520910,1636765046.204,8180
3520911,1636765046.206,8179
3520912,1636765046.208,8177
3520913,1636765046.21,8175
3520914,1636765046.212,8174
3520915,1636765046.214,8173
3520916,1636765046.216,8173
3520917,1636765046.218,8174
3520918,1636765046.22,8174
3520919,1636765046.222,8173
3520920,1636765046.224,8173
3520921,1636765046.226,8173
3520922,1636765046.228,8172
3520923,1636765046.23,8172
3520924,1636765046.232,8172
3520925,1636765046.234,8172
3520926,1636765046.236,8172
3520927,1636765046.238,8172
3520928,1636765046.24,8172
3520929,1636765046.242,8172
3520930,1636765046.244,8172
3520931,1636765046.246,8172
3520932,1636765046.248,8172
3520933,1636765046.25,8173
3520934,1636765046.252,8173
3520935,1636765046.254,8174
3520936,1636765046.256,8175
3520937,1636765046.258,8176
3520938,1636765046.26,8177
3520939,1636765046.262,8179
3520940,1636765046.264,8180
3520941,1636765046.266,8182
3520942,1636765046.268,8185
3520943,1636765046.27,8188
3520944,1636765046.272,8193
3520945,1636765046.274,8197
3520946,1636765046.276,8202
3520947,1636765046.278,8205
3520948,1636765046.28,8208
3520949,1636765046.282,8209
3520950,1636765046.284,8210
3520951,1636765046.286,8210
3520952,1636765046.288,8208
3520953,1636765046.29,8204
3520954,1636765046.292,8196
3520955,1636765046.294,8184
3520956,1636765046.296,8169
3520957,1636765046.298,8152
3520958,1636765046.3,8135
3520959,1636765046.302,8120
3520960,1636765046.304,8107
3520961,1636765046.306,8095
3520962,1636765046.308,8082
3520963,1636765046.31,8070
3520964,1636765046.312,8058
3520965,1636765046.314,8047
3520966,1636765046.316,8035
3520967,1636765046.318,8023
3520968,1636765046.32,8011
3520969,1636765046.322,7996
3520970,1636765046.324,7982
3520971,1636765046.326,7971
3520972,1636765046.328,7962
3520973,1636765046.33,7955
3520974,1636765046.332,7952
3520975,1636765046.334,7952
3520976,1636765046.336,7955
3520977,1636765046.338,7960
3520978,1636765046.34,7967
3520979,1636765046.342,7976
3520980,1636765046.344,7985
3520981,1636765046.346,7994
3520982,1636765046.348,8003
3520983,1636765046.35,8012
3520984,1636765046.352,8020
3520985,1636765046.354,8028
3520986,1636765046.356,8037
3520987,1636765046.358,8046
3520988,1636765046.36,8055
3520989,1636765046.362,8063
3520990,1636765046.364,8070
3520991,1636765046.366,8076
3520992,1636765046.368,8081
3520993,1636765046.37,8088
3520994,1636765046.372,8095
3520995,1636765046.374,8101
3520996,1636765046.376,8108
3520997,1636765046.378,8114
3520998,1636765046.38,8120
3520999,1636765046.382,8126
3521000,1636765046.384,8132
3521001,1636765046.386,8137
3521002,1636765046.388,8141
3521003,1636765046.39,8146
3521004,1636765046.392,8151
3521005,1636765046.394,8156
3521006,1636765046.396,8161
3521007,1636765046.398,8168
3521008,1636765046.4,8175
3521009,1636765046.402,8182
3521010,1636765046.404,8189
3521011,1636765046.406,8196
3521012,1636765046.408,8202
3521013,1636765046.41,8208
3521014,1636765046.412,8213
3521015,1636765046.414,8218
3521016,1636765046.416,8221
3521017,1636765046.418,8224
3521018,1636765046.42,8228
3521019,1636765046.422,8230
3521020,1636765046.424,8233
3521021,1636765046.426,8234
3521022,1636765046.428,8236
3521023,1636765046.43,8237
3521024,1636765046.432,8239
3521025,1636765046.434,8240
3521026,1636765046.436,8241
3521027,1636765046.438,8242
3521028,1636765046.44,8243
3521029,1636765046.442,8244
3521030,1636765046.444,8245
3521031,1636765046.446,8246
3521032,1636765046.448,8247
3521033,1636765046.45,8247
3521034,1636765046.452,8248
3521035,1636765046.454,8249
3521036,1636765046.456,8249
3521037,1636765046.458,8250
3521038,1636765046.46,8250
3521039,1636765046.462,8251
3521040,1636765046.464,8252
3521041,1636765046.466,8253
3521042,1636765046.468,8254
3521043,1636765046.47,8255
3521044,1636765046.472,8256
3521045,1636765046.474,8257
3521046,1636765046.476,8258
3521047,1636765046.478,8259
3521048,1636765046.48,8260
3521049,1636765046.482,8261
3521050,1636765046.484,8262
3521051,1636765046.486,8264
3521052,1636765046.488,8265
3521053,1636765046.49,8265
3521054,1636765046.492,8266
3521055,1636765046.494,8267
3521056,1636765046.496,8268
3521057,1636765046.498,8270
3521058,1636765046.5,8271
3521059,1636765046.502,8272
3521060,1636765046.504,8273
3521061,1636765046.506,8275
3521062,1636765046.508,8276
3521063,1636765046.51,8278
3521064,1636765046.512,8279
3521065,1636765046.514,8280
3521066,1636765046.516,8281
3521067,1636765046.518,8283
3521068,1636765046.52,8284
3521069,1636765046.522,8285
3521070,1636765046.524,8286
3521071,1636765046.526,8287
3521072,1636765046.528,8289
3521073,1636765046.53,8290
3521074,1636765046.532,8291
3521075,1636765046.534,8293
3521076,1636765046.536,8294
3521077,1636765046.538,8295
3521078,1636765046.54,8296
3521079,1636765046.542,8297
3521080,1636765046.544,8297
3521081,1636765046.546,8299
3521082,1636765046.548,8300
3521083,1636765046.55,8301
3521084,1636765046.552,8302
3521085,1636765046.554,8303
3521086,1636765046.556,8304
3521087,1636765046.558,8305
3521088,1636765046.56,8305
3521089,1636765046.562,8306
3521090,1636765046.564,8306
3521091,1636765046.566,8306
3521092,1636765046.568,8307
3521093,1636765046.57,8307
3521094,1636765046.572,8308
3521095,1636765046.574,8308
3521096,1636765046.576,8308
3521097,1636765046.578,8308
3521098,1636765046.58,8308
3521099,1636765046.582,8308
3521100,1636765046.584,8308
3521101,1636765046.586,8308
3521102,1636765046.588,8308
3521103,1636765046.59,8307
3521104,1636765046.592,8307
3521105,1636765046.594,8306
3521106,1636765046.596,8306
3521107,1636765046.598,8305
3521108,1636765046.6,8304
3521109,1636765046.602,8303
3521110,1636765046.604,8301
3521111,1636765046.606,8300
3521112,1636765046.608,8299
3521113,1636765046.61,8298
3521114,1636765046.612,8297
3521115,1636765046.614,8295
3521116,1636765046.616,8294
3521117,1636765046.618,8292
3521118,1636765046.62,8289
3521119,1636765046.622,8287
3521120,1636765046.624,8284
3521121,1636765046.626,8282
3521122,1636765046.628,8280
3521123,1636765046.63,8278
3521124,1636765046.632,8276
3521125,1636765046.634,8274
3521126,1636765046.636,8272
3521127,1636765046.638,8269
3521128,1636765046.64,8267
3521129,1636765046.642,8265
3521130,1636765046.644,8263
3521131,1636765046.646,8262
3521132,1636765046.648,8260
3521133,1636765046.65,8258
3521134,1636765046.652,8256
3521135,1636765046.654,8254
3521136,1636765046.656,8251
3521137,1636765046.658,8249
3521138,1636765046.66,8247
3521139,1636765046.662,8244
3521140,1636765046.664,8242
3521141,1636765046.666,8240
3521142,1636765046.668,8239
3521143,1636765046.67,8237
3521144,1636765046.672,8235
3521145,1636765046.674,8233
3521146,1636765046.676,8231
3521147,1636765046.678,8229
3521148,1636765046.68,8227
3521149,1636765046.682,8226
3521150,1636765046.684,8224
3521151,1636765046.686,8223
3521152,1636765046.688,8221
3521153,1636765046.69,8221
3521154,1636765046.692,8222
3521155,1636765046.694,8224
3521156,1636765046.696,8225
3521157,1636765046.698,8225
3521158,1636765046.7,8224
3521159,1636765046.702,8223
3521160,1636765046.704,8221
3521161,1636765046.706,8221
3521162,1636765046.708,8220
3521163,1636765046.71,8220
3521164,1636765046.712,8220
3521165,1636765046.714,8219
3521166,1636765046.716,8218
3521167,1636765046.718,8217
3521168,1636765046.72,8214
3521169,1636765046.722,8212
3521170,1636765046.724,8209
3521171,1636765046.726,8208
3521172,1636765046.728,8208
3521173,1636765046.73,8208
3521174,1636765046.732,8207
3521175,1636765046.734,8207
3521176,1636765046.736,8206
3521177,1636765046.738,8206
3521178,1636765046.74,8206
3521179,1636765046.742,8207
3521180,1636765046.744,8209
3521181,1636765046.746,8210
3521182,1636765046.748,8210
3521183,1636765046.75,8210
3521184,1636765046.752,8210
3521185,1636765046.754,8208
3521186,1636765046.756,8207
3521187,1636765046.758,8205
3521188,1636765046.76,8203
3521189,1636765046.762,8201
3521190,1636765046.764,8199
3521191,1636765046.766,8198
3521192,1636765046.768,8198
3521193,1636765046.77,8197
3521194,1636765046.772,8196
3521195,1636765046.774,8195
3521196,1636765046.776,8194
3521197,1636765046.778,8193
3521198,1636765046.78,8192
3521199,1636765046.782,8190
3521200,1636765046.784,8189
3521201,1636765046.786,8187
3521202,1636765046.788,8186
3521203,1636765046.79,8185
3521204,1636765046.792,8185
3521205,1636765046.794,8184
3521206,1636765046.796,8183
3521207,1636765046.798,8182
3521208,1636765046.8,8181
3521209,1636765046.802,8180
3521210,1636765046.804,8180
3521211,1636765046.806,8180
3521212,1636765046.808,8180
3521213,1636765046.81,8180
3521214,1636765046.812,8180
3521215,1636765046.814,8180
3521216,1636765046.816,8181
3521217,1636765046.818,8181
3521218,1636765046.82,8181
3521219,1636765046.822,8180
3521220,1636765046.824,8180
3521221,1636765046.826,8181
3521222,1636765046.828,8181
3521223,1636765046.83,8182
3521224,1636765046.832,8183
3521225,1636765046.834,8184
3521226,1636765046.836,8185
3521227,1636765046.838,8186
3521228,1636765046.84,8188
3521229,1636765046.842,8191
3521230,1636765046.844,8194
3521231,1636765046.846,8197
3521232,1636765046.848,8201
3521233,1636765046.85,8204
3521234,1636765046.852,8207
3521235,1636765046.854,8209
3521236,1636765046.856,8211
3521237,1636765046.858,8212
3521238,1636765046.86,8213
3521239,1636765046.862,8213
3521240,1636765046.864,8211
3521241,1636765046.866,8206
3521242,1636765046.868,8197
3521243,1636765046.87,8185
3521244,1636765046.872,8170
3521245,1636765046.874,8153
3521246,1636765046.876,8138
3521247,1636765046.878,8124
3521248,1636765046.88,8112
3521249,1636765046.882,8100
3521250,1636765046.884,8087
3521251,1636765046.886,8076
3521252,1636765046.888,8066
3521253,1636765046.89,8057
3521254,1636765046.892,8050
3521255,1636765046.894,8042
3521256,1636765046.896,8032
3521257,1636765046.898,8019
3521258,1636765046.9,8004
3521259,1636765046.902,7988
3521260,1636765046.904,7975
3521261,1636765046.906,7966
3521262,1636765046.908,7960
3521263,1636765046.91,7958
3521264,1636765046.912,7958
3521265,1636765046.914,7959
3521266,1636765046.916,7963
3521267,1636765046.918,7969
3521268,1636765046.92,7976
3521269,1636765046.922,7983
3521270,1636765046.924,7992
3521271,1636765046.926,8001
3521272,1636765046.928,8010
3521273,1636765046.93,8018
3521274,1636765046.932,8025
3521275,1636765046.934,8032
3521276,1636765046.936,8040
3521277,1636765046.938,8048
3521278,1636765046.94,8057
3521279,1636765046.942,8065
3521280,1636765046.944,8072
3521281,1636765046.946,8078
3521282,1636765046.948,8084
3521283,1636765046.95,8090
3521284,1636765046.952,8097
3521285,1636765046.954,8104
3521286,1636765046.956,8110
3521287,1636765046.958,8116
3521288,1636765046.96,8121
3521289,1636765046.962,8127
3521290,1636765046.964,8132
3521291,1636765046.966,8137
3521292,1636765046.968,8141
3521293,1636765046.97,8145
3521294,1636765046.972,8150
3521295,1636765046.974,8154
3521296,1636765046.976,8160
3521297,1636765046.978,8165
3521298,1636765046.98,8171
3521299,1636765046.982,8176
3521300,1636765046.984,8182
3521301,1636765046.986,8187
3521302,1636765046.988,8192
3521303,1636765046.99,8197
3521304,1636765046.992,8202
3521305,1636765046.994,8207
3521306,1636765046.996,8211
3521307,1636765046.998,8214
3521308,1636765047.0,8217
3521309,1636765047.002,8219
3521310,1636765047.004,8221
3521311,1636765047.006,8223
3521312,1636765047.008,8224
3521313,1636765047.01,8226
3521314,1636765047.012,8227
3521315,1636765047.014,8227
3521316,1636765047.016,8228
3521317,1636765047.018,8229
3521318,1636765047.02,8229
3521319,1636765047.022,8230
3521320,1636765047.024,8230
3521321,1636765047.026,8230
3521322,1636765047.028,8230
3521323,1636765047.03,8231
3521324,1636765047.032,8231
3521325,1636765047.034,8232
3521326,1636765047.036,8232
3521327,1636765047.038,8232
3521328,1636765047.04,8232
3521329,1636765047.042,8233
3521330,1636765047.044,8233
3521331,1636765047.046,8233
3521332,1636765047.048,8234
3521333,1636765047.05,8235
3521334,1636765047.052,8236
3521335,1636765047.054,8237
3521336,1636765047.056,8238
3521337,1636765047.058,8239
3521338,1636765047.06,8240
3521339,1636765047.062,8241
3521340,1636765047.064,8242
3521341,1636765047.066,8242
3521342,1636765047.068,8243
3521343,1636765047.07,8244
3521344,1636765047.072,8245
3521345,1636765047.074,8246
3521346,1636765047.076,8247
3521347,1636765047.078,8248
3521348,1636765047.08,8249
3521349,1636765047.082,8251
3521350,1636765047.084,8252
3521351,1636765047.086,8253
3521352,1636765047.088,8255
3521353,1636765047.09,8256
3521354,1636765047.092,8257
3521355,1636765047.094,8258
3521356,1636765047.096,8260
3521357,1636765047.098,8261
3521358,1636765047.1,8262
3521359,1636765047.102,8263
3521360,1636765047.104,8265
3521361,1636765047.106,8266
3521362,1636765047.108,8267
3521363,1636765047.11,8268
3521364,1636765047.112,8268
3521365,1636765047.114,8269
3521366,1636765047.116,8271
3521367,1636765047.118,8272
3521368,1636765047.12,8273
3521369,1636765047.122,8274
3521370,1636765047.124,8275
3521371,1636765047.126,8276
3521372,1636765047.128,8276
3521373,1636765047.13,8277
3521374,1636765047.132,8277
3521375,1636765047.134,8278
3521376,1636765047.136,8279
3521377,1636765047.138,8280
3521378,1636765047.14,8281
3521379,1636765047.142,8282
3521380,1636765047.144,8283
3521381,1636765047.146,8284
3521382,1636765047.148,8284
3521383,1636765047.15,8284
3521384,1636765047.152,8284
3521385,1636765047.154,8284
3521386,1636765047.156,8283
3521387,1636765047.158,8283
3521388,1636765047.16,8283
3521389,1636765047.162,8282
3521390,1636765047.164,8281
3521391,1636765047.166,8280
3521392,1636765047.168,8279
3521393,1636765047.17,8279
3521394,1636765047.172,8278
3521395,1636765047.174,8276
3521396,1636765047.176,8275
3521397,1636765047.178,8273
3521398,1636765047.18,8272
3521399,1636765047.182,8270
3521400,1636765047.184,8268
3521401,1636765047.186,8266
3521402,1636765047.188,8264
3521403,1636765047.19,8262
3521404,1636765047.192,8260
3521405,1636765047.194,8257
3521406,1636765047.196,8256
3521407,1636765047.198,8254
3521408,1636765047.2,8252
3521409,1636765047.202,8250
3521410,1636765047.204,8247
3521411,1636765047.206,8244
3521412,1636765047.208,8241
3521413,1636765047.21,8238
3521414,1636765047.212,8236
3521415,1636765047.214,8233
3521416,1636765047.216,8230
3521417,1636765047.218,8227
3521418,1636765047.22,8225
3521419,1636765047.222,8223
3521420,1636765047.224,8221
3521421,1636765047.226,8219
3521422,1636765047.228,8217
3521423,1636765047.23,8215
3521424,1636765047.232,8213
3521425,1636765047.234,8211
3521426,1636765047.236,8209
3521427,1636765047.238,8207
3521428,1636765047.24,8205
3521429,1636765047.242,8203
3521430,1636765047.244,8201
3521431,1636765047.246,8198
3521432,1636765047.248,8196
3521433,1636765047.25,8194
3521434,1636765047.252,8191
3521435,1636765047.254,8189
3521436,1636765047.256,8187
3521437,1636765047.258,8185
3521438,1636765047.26,8183
3521439,1636765047.262,8181
3521440,1636765047.264,8180
3521441,1636765047.266,8181
3521442,1636765047.268,8182
3521443,1636765047.27,8184
3521444,1636765047.272,8184
3521445,1636765047.274,8184
3521446,1636765047.276,8183
3521447,1636765047.278,8182
3521448,1636765047.28,8181
3521449,1636765047.282,8180
3521450,1636765047.284,8180
3521451,1636765047.286,8179
3521452,1636765047.288,8178
3521453,1636765047.29,8177
3521454,1636765047.292,8175
3521455,1636765047.294,8173
3521456,1636765047.296,8172
3521457,1636765047.298,8170
3521458,1636765047.3,8170
3521459,1636765047.302,8170
3521460,1636765047.304,8171
3521461,1636765047.306,8171
3521462,1636765047.308,8172
3521463,1636765047.31,8172
3521464,1636765047.312,8172
3521465,1636765047.314,8173
3521466,1636765047.316,8174
3521467,1636765047.318,8176
3521468,1636765047.32,8178
3521469,1636765047.322,8180
3521470,1636765047.324,8181
3521471,1636765047.326,8182
3521472,1636765047.328,8183
3521473,1636765047.33,8184
3521474,1636765047.332,8184
3521475,1636765047.334,8184
3521476,1636765047.336,8183
3521477,1636765047.338,8182
3521478,1636765047.34,8182
3521479,1636765047.342,8182
3521480,1636765047.344,8183
3521481,1636765047.346,8184
3521482,1636765047.348,8184
3521483,1636765047.35,8184
3521484,1636765047.352,8183
3521485,1636765047.354,8180
3521486,1636765047.356,8173
3521487,1636765047.358,8162
3521488,1636765047.36,8148
3521489,1636765047.362,8134
3521490,1636765047.364,8119
3521491,1636765047.366,8107
3521492,1636765047.368,8096
3521493,1636765047.37,8086
3521494,1636765047.372,8075
3521495,1636765047.374,8065
3521496,1636765047.376,8056
3521497,1636765047.378,8048
3521498,1636765047.38,8041
3521499,1636765047.382,8033
3521500,1636765047.384,8026
3521501,1636765047.386,8018
3521502,1636765047.388,8010
3521503,1636765047.39,8001
3521504,1636765047.392,7989
3521505,1636765047.394,7975
3521506,1636765047.396,7960
3521507,1636765047.398,7947
3521508,1636765047.4,7937
3521509,1636765047.402,7931
3521510,1636765047.404,7928
3521511,1636765047.406,7927
3521512,1636765047.408,7925
3521513,1636765047.41,7923
3521514,1636765047.412,7921
3521515,1636765047.414,7920
3521516,1636765047.416,7919
3521517,1636765047.418,7920
3521518,1636765047.42,7924
3521519,1636765047.422,7929
3521520,1636765047.424,7936
3521521,1636765047.426,7944
3521522,1636765047.428,7953
3521523,1636765047.43,7962
3521524,1636765047.432,7972
3521525,1636765047.434,7981
3521526,1636765047.436,7990
3521527,1636765047.438,7999
3521528,1636765047.44,8008
3521529,1636765047.442,8016
3521530,1636765047.444,8024
3521531,1636765047.446,8032
3521532,1636765047.448,8039
3521533,1636765047.45,8044
3521534,1636765047.452,8050
3521535,1636765047.454,8055
3521536,1636765047.456,8060
3521537,1636765047.458,8066
3521538,1636765047.46,8073
3521539,1636765047.462,8080
3521540,1636765047.464,8089
3521541,1636765047.466,8097
3521542,1636765047.468,8105
3521543,1636765047.47,8113
3521544,1636765047.472,8120
3521545,1636765047.474,8126
3521546,1636765047.476,8132
3521547,1636765047.478,8137
3521548,1636765047.48,8142
3521549,1636765047.482,8147
3521550,1636765047.484,8152
3521551,1636765047.486,8156
3521552,1636765047.488,8161
3521553,1636765047.49,8166
3521554,1636765047.492,8171
3521555,1636765047.494,8176
3521556,1636765047.496,8181
3521557,1636765047.498,8187
3521558,1636765047.5,8192
3521559,1636765047.502,8198
3521560,1636765047.504,8203
3521561,1636765047.506,8208
3521562,1636765047.508,8213
3521563,1636765047.51,8217
3521564,1636765047.512,8221
3521565,1636765047.514,8225
3521566,1636765047.516,8228
3521567,1636765047.518,8230
3521568,1636765047.52,8232
3521569,1636765047.522,8234
3521570,1636765047.524,8235
3521571,1636765047.526,8236
3521572,1636765047.528,8238
3521573,1636765047.53,8240
3521574,1636765047.532,8241
3521575,1636765047.534,8243
3521576,1636765047.536,8244
3521577,1636765047.538,8245
3521578,1636765047.54,8246
3521579,1636765047.542,8247
3521580,1636765047.544,8248
3521581,1636765047.546,8249
3521582,1636765047.548,8250
3521583,1636765047.55,8252
3521584,1636765047.552,8253
3521585,1636765047.554,8254
3521586,1636765047.556,8255
3521587,1636765047.558,8256
3521588,1636765047.56,8257
3521589,1636765047.562,8258
3521590,1636765047.564,8259
3521591,1636765047.566,8261
3521592,1636765047.568,8262
3521593,1636765047.57,8263
3521594,1636765047.572,8265
3521595,1636765047.574,8266
3521596,1636765047.576,8267
3521597,1636765047.578,8268
3521598,1636765047.58,8269
3521599,1636765047.582,8270
3521600,1636765047.584,8272
3521601,1636765047.586,8273
3521602,1636765047.588,8273
3521603,1636765047.59,8274
3521604,1636765047.592,8276
3521605,1636765047.594,8277
3521606,1636765047.596,8278
3521607,1636765047.598,8279
3521608,1636765047.6,8280
3521609,1636765047.602,8281
3521610,1636765047.604,8283
3521611,1636765047.606,8284
3521612,1636765047.608,8285
3521613,1636765047.61,8285
3521614,1636765047.612,8286
3521615,1636765047.614,8286
3521616,1636765047.616,8287
3521617,1636765047.618,8288
3521618,1636765047.62,8288
3521619,1636765047.622,8289
3521620,1636765047.624,8289
3521621,1636765047.626,8290
3521622,1636765047.628,8290
3521623,1636765047.63,8291
3521624,1636765047.632,8292
3521625,1636765047.634,8292
3521626,1636765047.636,8292
3521627,1636765047.638,8293
3521628,1636765047.64,8293
3521629,1636765047.642,8293
3521630,1636765047.644,8293
3521631,1636765047.646,8292
3521632,1636765047.648,8292
3521633,1636765047.65,8291
3521634,1636765047.652,8291
3521635,1636765047.654,8291
3521636,1636765047.656,8291
3521637,1636765047.658,8290
3521638,1636765047.66,8289
3521639,1636765047.662,8288
3521640,1636765047.664,8287
3521641,1636765047.666,8285
3521642,1636765047.668,8284
3521643,1636765047.67,8282
3521644,1636765047.672,8281
3521645,1636765047.674,8280
3521646,1636765047.676,8278
3521647,1636765047.678,8277
3521648,1636765047.68,8276
3521649,1636765047.682,8274
3521650,1636765047.684,8272
3521651,1636765047.686,8271
3521652,1636765047.688,8269
3521653,1636765047.69,8267
3521654,1636765047.692,8265
3521655,1636765047.694,8263
3521656,1636765047.696,8261
3521657,1636765047.698,8259
3521658,1636765047.7,8257
3521659,1636765047.702,8255
3521660,1636765047.704,8253
3521661,1636765047.706,8250
3521662,1636765047.708,8247
3521663,1636765047.71,8245
3521664,1636765047.712,8243
3521665,1636765047.714,8241
3521666,1636765047.716,8239
3521667,1636765047.718,8237
3521668,1636765047.72,8235
3521669,1636765047.722,8232
3521670,1636765047.724,8230
3521671,1636765047.726,8228
3521672,1636765047.728,8226
3521673,1636765047.73,8224
3521674,1636765047.732,8221
3521675,1636765047.734,8219
3521676,1636765047.736,8217
3521677,1636765047.738,8215
3521678,1636765047.74,8214
3521679,1636765047.742,8212
3521680,1636765047.744,8210
3521681,1636765047.746,8208
3521682,1636765047.748,8206
3521683,1636765047.75,8204
3521684,1636765047.752,8202
3521685,1636765047.754,8201
3521686,1636765047.756,8200
3521687,1636765047.758,8198
3521688,1636765047.76,8197
3521689,1636765047.762,8196
3521690,1636765047.764,8194
3521691,1636765047.766,8193
3521692,1636765047.768,8191
3521693,1636765047.77,8190
3521694,1636765047.772,8188
3521695,1636765047.774,8187
3521696,1636765047.776,8185
3521697,1636765047.778,8184
3521698,1636765047.78,8183
3521699,1636765047.782,8182
3521700,1636765047.784,8181
3521701,1636765047.786,8180
3521702,1636765047.788,8179
3521703,1636765047.79,8178
3521704,1636765047.792,8177
3521705,1636765047.794,8175
3521706,1636765047.796,8175
3521707,1636765047.798,8174
3521708,1636765047.8,8173
3521709,1636765047.802,8173
3521710,1636765047.804,8173
3521711,1636765047.806,8172
3521712,1636765047.808,8171
3521713,1636765047.81,8170
3521714,1636765047.812,8170
3521715,1636765047.814,8170
3521716,1636765047.816,8169
3521717,1636765047.818,8169
3521718,1636765047.82,8168
3521719,1636765047.822,8168
3521720,1636765047.824,8167
3521721,1636765047.826,8167
3521722,1636765047.828,8167
3521723,1636765047.83,8167
3521724,1636765047.832,8167
3521725,1636765047.834,8166
3521726,1636765047.836,8166
3521727,1636765047.838,8167
3521728,1636765047.84,8168
3521729,1636765047.842,8170
3521730,1636765047.844,8173
3521731,1636765047.846,8174
3521732,1636765047.848,8176
3521733,1636765047.85,8176
3521734,1636765047.852,8177
3521735,1636765047.854,8177
3521736,1636765047.856,8177
3521737,1636765047.858,8178
3521738,1636765047.86,8178
3521739,1636765047.862,8178
3521740,1636765047.864,8177
3521741,1636765047.866,8177
3521742,1636765047.868,8176
3521743,1636765047.87,8175
3521744,1636765047.872,8174
3521745,1636765047.874,8174
3521746,1636765047.876,8173
3521747,1636765047.878,8174
3521748,1636765047.88,8174
3521749,1636765047.882,8175
3521750,1636765047.884,8176
3521751,1636765047.886,8176
3521752,1636765047.888,8177
3521753,1636765047.89,8179
3521754,1636765047.892,8181
3521755,1636765047.894,8182
3521756,1636765047.896,8184
3521757,1636765047.898,8184
3521758,1636765047.9,8184
3521759,1636765047.902,8184
3521760,1636765047.904,8183
3521761,1636765047.906,8182
3521762,1636765047.908,8181
3521763,1636765047.91,8180
3521764,1636765047.912,8178
3521765,1636765047.914,8177
3521766,1636765047.916,8176
3521767,1636765047.918,8176
3521768,1636765047.92,8176
3521769,1636765047.922,8177
3521770,1636765047.924,8177
3521771,1636765047.926,8178
3521772,1636765047.928,8178
3521773,1636765047.93,8178
3521774,1636765047.932,8178
3521775,1636765047.934,8178
3521776,1636765047.936,8178
3521777,1636765047.938,8178
3521778,1636765047.94,8178
3521779,1636765047.942,8179
3521780,1636765047.944,8181
3521781,1636765047.946,8182
3521782,1636765047.948,8183
3521783,1636765047.95,8184
3521784,1636765047.952,8183
3521785,1636765047.954,8182
3521786,1636765047.956,8179
3521787,1636765047.958,8173
3521788,1636765047.96,8162
3521789,1636765047.962,8149
3521790,1636765047.964,8134
3521791,1636765047.966,8119
3521792,1636765047.968,8105
3521793,1636765047.97,8091
3521794,1636765047.972,8079
3521795,1636765047.974,8067
3521796,1636765047.976,8057
3521797,1636765047.978,8047
3521798,1636765047.98,8038
3521799,1636765047.982,8030
3521800,1636765047.984,8023
3521801,1636765047.986,8017
3521802,1636765047.988,8010
3521803,1636765047.99,8001
3521804,1636765047.992,7989
3521805,1636765047.994,7977
3521806,1636765047.996,7967
3521807,1636765047.998,7958
3521808,1636765048.0,7951
3521809,1636765048.002,7945
3521810,1636765048.004,7942
3521811,1636765048.006,7940
3521812,1636765048.008,7938
3521813,1636765048.01,7936
3521814,1636765048.012,7935
3521815,1636765048.014,7935
3521816,1636765048.016,7936
3521817,1636765048.018,7938
3521818,1636765048.02,7942
3521819,1636765048.022,7949
3521820,1636765048.024,7957
3521821,1636765048.026,7967
3521822,1636765048.028,7978
3521823,1636765048.03,7989
3521824,1636765048.032,8000
3521825,1636765048.034,8010
3521826,1636765048.036,8020
3521827,1636765048.038,8029
3521828,1636765048.04,8037
3521829,1636765048.042,8044
3521830,1636765048.044,8050
3521831,1636765048.046,8057
3521832,1636765048.048,8063
3521833,1636765048.05,8069
3521834,1636765048.052,8075
3521835,1636765048.054,8082
3521836,1636765048.056,8088
3521837,1636765048.058,8094
3521838,1636765048.06,8101
3521839,1636765048.062,8107
3521840,1636765048.064,8113
3521841,1636765048.066,8120
3521842,1636765048.068,8127
3521843,1636765048.07,8132
3521844,1636765048.072,8138
3521845,1636765048.074,8143
3521846,1636765048.076,8148
3521847,1636765048.078,8152
3521848,1636765048.08,8157
3521849,1636765048.082,8160
3521850,1636765048.084,8164
3521851,1636765048.086,8169
3521852,1636765048.088,8174
3521853,1636765048.09,8181
3521854,1636765048.092,8187
3521855,1636765048.094,8193
3521856,1636765048.096,8199
3521857,1636765048.098,8205
3521858,1636765048.1,8210
3521859,1636765048.102,8215
3521860,1636765048.104,8220
3521861,1636765048.106,8224
3521862,1636765048.108,8227
3521863,1636765048.11,8230
3521864,1636765048.112,8233
3521865,1636765048.114,8235
3521866,1636765048.116,8236
3521867,1636765048.118,8238
3521868,1636765048.12,8239
3521869,1636765048.122,8240
3521870,1636765048.124,8241
3521871,1636765048.126,8242
3521872,1636765048.128,8243
3521873,1636765048.13,8244
3521874,1636765048.132,8246
3521875,1636765048.134,8247
3521876,1636765048.136,8248
3521877,1636765048.138,8249
3521878,1636765048.14,8250
3521879,1636765048.142,8251
3521880,1636765048.144,8252
3521881,1636765048.146,8253
3521882,1636765048.148,8254
3521883,1636765048.15,8255
3521884,1636765048.152,8256
3521885,1636765048.154,8257
3521886,1636765048.156,8258
3521887,1636765048.158,8259
3521888,1636765048.16,8260
3521889,1636765048.162,8261
3521890,1636765048.164,8263
3521891,1636765048.166,8264
3521892,1636765048.168,8266
3521893,1636765048.17,8268
3521894,1636765048.172,8269
3521895,1636765048.174,8270
3521896,1636765048.176,8271
3521897,1636765048.178,8273
3521898,1636765048.18,8274
3521899,1636765048.182,8275
3521900,1636765048.184,8277
3521901,1636765048.186,8278
3521902,1636765048.188,8279
3521903,1636765048.19,8280
3521904,1636765048.192,8281
3521905,1636765048.194,8281
3521906,1636765048.196,8283
3521907,1636765048.198,8284
3521908,1636765048.2,8285
3521909,1636765048.202,8286
3521910,1636765048.204,8288
3521911,1636765048.206,8289
3521912,1636765048.208,8290
3521913,1636765048.21,8291
3521914,1636765048.212,8291
3521915,1636765048.214,8292
3521916,1636765048.216,8293
3521917,1636765048.218,8293
3521918,1636765048.22,8294
3521919,1636765048.222,8295
3521920,1636765048.224,8296
3521921,1636765048.226,8296
3521922,1636765048.228,8297
3521923,1636765048.23,8297
3521924,1636765048.232,8298
3521925,1636765048.234,8299
3521926,1636765048.236,8299
3521927,1636765048.238,8300
3521928,1636765048.24,8301
3521929,1636765048.242,8301
3521930,1636765048.244,8301
3521931,1636765048.246,8301
3521932,1636765048.248,8302
3521933,1636765048.25,8302
3521934,1636765048.252,8302
3521935,1636765048.254,8302
3521936,1636765048.256,8301
3521937,1636765048.258,8301
3521938,1636765048.26,8301
3521939,1636765048.262,8300
3521940,1636765048.264,8300
3521941,1636765048.266,8299
3521942,1636765048.268,8299
3521943,1636765048.27,8298
3521944,1636765048.272,8297
3521945,1636765048.274,8295
3521946,1636765048.276,8294
3521947,1636765048.278,8293
3521948,1636765048.28,8292
3521949,1636765048.282,8290
3521950,1636765048.284,8289
3521951,1636765048.286,8287
3521952,1636765048.288,8285
3521953,1636765048.29,8283
3521954,1636765048.292,8281
3521955,1636765048.294,8279
3521956,1636765048.296,8277
3521957,1636765048.298,8275
3521958,1636765048.3,8272
3521959,1636765048.302,8270
3521960,1636765048.304,8268
3521961,1636765048.306,8266
3521962,1636765048.308,8263
3521963,1636765048.31,8261
3521964,1636765048.312,8259
3521965,1636765048.314,8257
3521966,1636765048.316,8254
3521967,1636765048.318,8252
3521968,1636765048.32,8249
3521969,1636765048.322,8247
3521970,1636765048.324,8244
3521971,1636765048.326,8242
3521972,1636765048.328,8240
3521973,1636765048.33,8237
3521974,1636765048.332,8235
3521975,1636765048.334,8233
3521976,1636765048.336,8230
3521977,1636765048.338,8228
3521978,1636765048.34,8226
3521979,1636765048.342,8223
3521980,1636765048.344,8221
3521981,1636765048.346,8219
3521982,1636765048.348,8217
3521983,1636765048.35,8215
3521984,1636765048.352,8213
3521985,1636765048.354,8211
3521986,1636765048.356,8209
3521987,1636765048.358,8207
3521988,1636765048.36,8205
3521989,1636765048.362,8203
3521990,1636765048.364,8201
3521991,1636765048.366,8199
3521992,1636765048.368,8197
3521993,1636765048.37,8196
3521994,1636765048.372,8194
3521995,1636765048.374,8193
3521996,1636765048.376,8192
3521997,1636765048.378,8190
3521998,1636765048.38,8188
3521999,1636765048.382,8187
3522000,1636765048.384,8185
3522001,1636765048.386,8184
3522002,1636765048.388,8183
3522003,1636765048.39,8182
3522004,1636765048.392,8180
3522005,1636765048.394,8179
3522006,1636765048.396,8178
3522007,1636765048.398,8177
3522008,1636765048.4,8176
3522009,1636765048.402,8176
3522010,1636765048.404,8175
3522011,1636765048.406,8175
3522012,1636765048.408,8174
3522013,1636765048.41,8173
3522014,1636765048.412,8173
3522015,1636765048.414,8173
3522016,1636765048.416,8175
3522017,1636765048.418,8177
3522018,1636765048.42,8179
3522019,1636765048.422,8180
3522020,1636765048.424,8180
3522021,1636765048.426,8180
3522022,1636765048.428,8180
3522023,1636765048.43,8180
3522024,1636765048.432,8180
3522025,1636765048.434,8180
3522026,1636765048.436,8180
3522027,1636765048.438,8180
3522028,1636765048.44,8179
3522029,1636765048.442,8179
3522030,1636765048.444,8178
3522031,1636765048.446,8177
3522032,1636765048.448,8177
3522033,1636765048.45,8177
3522034,1636765048.452,8178
3522035,1636765048.454,8178
3522036,1636765048.456,8179
3522037,1636765048.458,8179
3522038,1636765048.46,8178
3522039,1636765048.462,8178
3522040,1636765048.464,8179
3522041,1636765048.466,8180
3522042,1636765048.468,8182
3522043,1636765048.47,8183
3522044,1636765048.472,8183
3522045,1636765048.474,8183
3522046,1636765048.476,8183
3522047,1636765048.478,8183
3522048,1636765048.48,8182
3522049,1636765048.482,8181
3522050,1636765048.484,8180
3522051,1636765048.486,8178
3522052,1636765048.488,8176
3522053,1636765048.49,8175
3522054,1636765048.492,8174
3522055,1636765048.494,8174
3522056,1636765048.496,8173
3522057,1636765048.498,8173
3522058,1636765048.5,8172
3522059,1636765048.502,8172
3522060,1636765048.504,8171
3522061,1636765048.506,8169
3522062,1636765048.508,8167
3522063,1636765048.51,8165
3522064,1636765048.512,8164
3522065,1636765048.514,8164
3522066,1636765048.516,8164
3522067,1636765048.518,8163
3522068,1636765048.52,8163
3522069,1636765048.522,8162
3522070,1636765048.524,8162
3522071,1636765048.526,8161
3522072,1636765048.528,8160
3522073,1636765048.53,8160
3522074,1636765048.532,8161
3522075,1636765048.534,8161
3522076,1636765048.536,8161
3522077,1636765048.538,8161
3522078,1636765048.54,8161
3522079,1636765048.542,8162
3522080,1636765048.544,8162
3522081,1636765048.546,8163
3522082,1636765048.548,8163
3522083,1636765048.55,8162
3522084,1636765048.552,8162
3522085,1636765048.554,8162
3522086,1636765048.556,8163
3522087,1636765048.558,8163
3522088,1636765048.56,8163
3522089,1636765048.562,8163
3522090,1636765048.564,8163
3522091,1636765048.566,8164
3522092,1636765048.568,8165
3522093,1636765048.57,8166
3522094,1636765048.572,8167
3522095,1636765048.574,8169
3522096,1636765048.576,8171
3522097,1636765048.578,8174
3522098,1636765048.58,8177
3522099,1636765048.582,8181
3522100,1636765048.584,8183
3522101,1636765048.586,8185
3522102,1636765048.588,8186
3522103,1636765048.59,8187
3522104,1636765048.592,8188
3522105,1636765048.594,8188
3522106,1636765048.596,8188
3522107,1636765048.598,8186
3522108,1636765048.6,8181
3522109,1636765048.602,8173
3522110,1636765048.604,8164
3522111,1636765048.606,8154
3522112,1636765048.608,8142
3522113,1636765048.61,8130
3522114,1636765048.612,8118
3522115,1636765048.614,8106
3522116,1636765048.616,8093
3522117,1636765048.618,8080
3522118,1636765048.62,8065
3522119,1636765048.622,8049
3522120,1636765048.624,8032
3522121,1636765048.626,8014
3522122,1636765048.628,7998
3522123,1636765048.63,7981
3522124,1636765048.632,7964
3522125,1636765048.634,7948
3522126,1636765048.636,7934
3522127,1636765048.638,7924
3522128,1636765048.64,7916
3522129,1636765048.642,7911
3522130,1636765048.644,7909
3522131,1636765048.646,7910
3522132,1636765048.648,7913
3522133,1636765048.65,7917
3522134,1636765048.652,7922
3522135,1636765048.654,7928
3522136,1636765048.656,7935
3522137,1636765048.658,7944
3522138,1636765048.66,7953
3522139,1636765048.662,7963
3522140,1636765048.664,7973
3522141,1636765048.666,7983
3522142,1636765048.668,7992
3522143,1636765048.67,8002
3522144,1636765048.672,8012
3522145,1636765048.674,8023
3522146,1636765048.676,8034
3522147,1636765048.678,8045
3522148,1636765048.68,8057
3522149,1636765048.682,8068
3522150,1636765048.684,8079
3522151,1636765048.686,8090
3522152,1636765048.688,8099
3522153,1636765048.69,8107
3522154,1636765048.692,8114
3522155,1636765048.694,8120
3522156,1636765048.696,8125
3522157,1636765048.698,8130
3522158,1636765048.7,8135
3522159,1636765048.702,8141
3522160,1636765048.704,8147
3522161,1636765048.706,8153
3522162,1636765048.708,8158
3522163,1636765048.71,8164
3522164,1636765048.712,8169
3522165,1636765048.714,8173
3522166,1636765048.716,8177
3522167,1636765048.718,8181
3522168,1636765048.72,8186
3522169,1636765048.722,8190
3522170,1636765048.724,8194
3522171,1636765048.726,8198
3522172,1636765048.728,8202
3522173,1636765048.73,8205
3522174,1636765048.732,8207
3522175,1636765048.734,8210
3522176,1636765048.736,8212
3522177,1636765048.738,8213
3522178,1636765048.74,8215
3522179,1636765048.742,8216
3522180,1636765048.744,8217
3522181,1636765048.746,8218
3522182,1636765048.748,8219
3522183,1636765048.75,8220
3522184,1636765048.752,8221
3522185,1636765048.754,8222
3522186,1636765048.756,8222
3522187,1636765048.758,8223
3522188,1636765048.76,8223
3522189,1636765048.762,8225
3522190,1636765048.764,8226
3522191,1636765048.766,8227
3522192,1636765048.768,8227
3522193,1636765048.77,8228
3522194,1636765048.772,8229
3522195,1636765048.774,8230
3522196,1636765048.776,8231
3522197,1636765048.778,8232
3522198,1636765048.78,8233
3522199,1636765048.782,8234
3522200,1636765048.784,8235
3522201,1636765048.786,8237
3522202,1636765048.788,8238
3522203,1636765048.79,8239
3522204,1636765048.792,8240
3522205,1636765048.794,8242
3522206,1636765048.796,8243
3522207,1636765048.798,8244
3522208,1636765048.8,8246
3522209,1636765048.802,8247
3522210,1636765048.804,8248
3522211,1636765048.806,8250
3522212,1636765048.808,8252
3522213,1636765048.81,8253
3522214,1636765048.812,8254
3522215,1636765048.814,8255
3522216,1636765048.816,8257
3522217,1636765048.818,8258
3522218,1636765048.82,8260
3522219,1636765048.822,8262
3522220,1636765048.824,8264
3522221,1636765048.826,8265
3522222,1636765048.828,8267
3522223,1636765048.83,8269
3522224,1636765048.832,8270
3522225,1636765048.834,8271
3522226,1636765048.836,8272
3522227,1636765048.838,8274
3522228,1636765048.84,8275
3522229,1636765048.842,8276
3522230,1636765048.844,8277
3522231,1636765048.846,8279
3522232,1636765048.848,8280
3522233,1636765048.85,8281
3522234,1636765048.852,8281
3522235,1636765048.854,8282
3522236,1636765048.856,8284
3522237,1636765048.858,8285
3522238,1636765048.86,8286
3522239,1636765048.862,8287
3522240,1636765048.864,8287
3522241,1636765048.866,8288
3522242,1636765048.868,8288
3522243,1636765048.87,8289
3522244,1636765048.872,8290
3522245,1636765048.874,8290
3522246,1636765048.876,8291
3522247,1636765048.878,8291
3522248,1636765048.88,8291
3522249,1636765048.882,8291
3522250,1636765048.884,8292
3522251,1636765048.886,8292
3522252,1636765048.888,8292
3522253,1636765048.89,8291
3522254,1636765048.892,8291
3522255,1636765048.894,8291
3522256,1636765048.896,8290
3522257,1636765048.898,8289
3522258,1636765048.9,8288
3522259,1636765048.902,8288
3522260,1636765048.904,8287
3522261,1636765048.906,8286
3522262,1636765048.908,8285
3522263,1636765048.91,8285
3522264,1636765048.912,8283
3522265,1636765048.914,8282
3522266,1636765048.916,8281
3522267,1636765048.918,8279
3522268,1636765048.92,8277
3522269,1636765048.922,8276
3522270,1636765048.924,8274
3522271,1636765048.926,8272
3522272,1636765048.928,8270
3522273,1636765048.93,8268
3522274,1636765048.932,8266
3522275,1636765048.934,8264
3522276,1636765048.936,8262
3522277,1636765048.938,8260
3522278,1636765048.94,8258
3522279,1636765048.942,8256
3522280,1636765048.944,8254
3522281,1636765048.946,8251
3522282,1636765048.948,8249
3522283,1636765048.95,8247
3522284,1636765048.952,8245
3522285,1636765048.954,8242
3522286,1636765048.956,8240
3522287,1636765048.958,8238
3522288,1636765048.96,8236
3522289,1636765048.962,8234
3522290,1636765048.964,8232
3522291,1636765048.966,8230
3522292,1636765048.968,8228
3522293,1636765048.97,8226
3522294,1636765048.972,8224
3522295,1636765048.974,8222
3522296,1636765048.976,8220
3522297,1636765048.978,8218
3522298,1636765048.98,8216
3522299,1636765048.982,8215
3522300,1636765048.984,8214
3522301,1636765048.986,8213
3522302,1636765048.988,8212
3522303,1636765048.99,8211
3522304,1636765048.992,8212
3522305,1636765048.994,8213
3522306,1636765048.996,8214
3522307,1636765048.998,8213
3522308,1636765049.0,8212
3522309,1636765049.002,8211
3522310,1636765049.004,8210
3522311,1636765049.006,8209
3522312,1636765049.008,8207
3522313,1636765049.01,8206
3522314,1636765049.012,8205
3522315,1636765049.014,8204
3522316,1636765049.016,8202
3522317,1636765049.018,8201
3522318,1636765049.02,8199
3522319,1636765049.022,8198
3522320,1636765049.024,8197
3522321,1636765049.026,8197
3522322,1636765049.028,8197
3522323,1636765049.03,8197
3522324,1636765049.032,8196
3522325,1636765049.034,8196
3522326,1636765049.036,8195
3522327,1636765049.038,8195
3522328,1636765049.04,8196
3522329,1636765049.042,8197
3522330,1636765049.044,8197
3522331,1636765049.046,8198
3522332,1636765049.048,8197
3522333,1636765049.05,8197
3522334,1636765049.052,8196
3522335,1636765049.054,8194
3522336,1636765049.056,8193
3522337,1636765049.058,8191
3522338,1636765049.06,8189
3522339,1636765049.062,8187
3522340,1636765049.064,8185
3522341,1636765049.066,8184
3522342,1636765049.068,8183
3522343,1636765049.07,8182
3522344,1636765049.072,8181
3522345,1636765049.074,8180
3522346,1636765049.076,8179
3522347,1636765049.078,8177
3522348,1636765049.08,8176
3522349,1636765049.082,8174
3522350,1636765049.084,8173
3522351,1636765049.086,8172
3522352,1636765049.088,8171
3522353,1636765049.09,8170
3522354,1636765049.092,8170
3522355,1636765049.094,8169
3522356,1636765049.096,8168
3522357,1636765049.098,8168
3522358,1636765049.1,8168
3522359,1636765049.102,8168
3522360,1636765049.104,8168
3522361,1636765049.106,8168
3522362,1636765049.108,8168
3522363,1636765049.11,8168
3522364,1636765049.112,8169
3522365,1636765049.114,8170
3522366,1636765049.116,8172
3522367,1636765049.118,8174
3522368,1636765049.12,8176
3522369,1636765049.122,8179
3522370,1636765049.124,8181
3522371,1636765049.126,8183
3522372,1636765049.128,8185
3522373,1636765049.13,8187
3522374,1636765049.132,8187
3522375,1636765049.134,8185
3522376,1636765049.136,8180
3522377,1636765049.138,8171
3522378,1636765049.14,8162
3522379,1636765049.142,8151
3522380,1636765049.144,8141
3522381,1636765049.146,8131
3522382,1636765049.148,8122
3522383,1636765049.15,8115
3522384,1636765049.152,8110
3522385,1636765049.154,8106
3522386,1636765049.156,8101
3522387,1636765049.158,8096
3522388,1636765049.16,8089
3522389,1636765049.162,8082
3522390,1636765049.164,8075
3522391,1636765049.166,8066
3522392,1636765049.168,8058
3522393,1636765049.17,8050
3522394,1636765049.172,8042
3522395,1636765049.174,8036
3522396,1636765049.176,8030
3522397,1636765049.178,8022
3522398,1636765049.18,8012
3522399,1636765049.182,8000
3522400,1636765049.184,7986
3522401,1636765049.186,7971
3522402,1636765049.188,7958
3522403,1636765049.19,7947
3522404,1636765049.192,7940
3522405,1636765049.194,7936
3522406,1636765049.196,7933
3522407,1636765049.198,7932
3522408,1636765049.2,7931
3522409,1636765049.202,7932
3522410,1636765049.204,7935
3522411,1636765049.206,7939
3522412,1636765049.208,7943
3522413,1636765049.21,7947
3522414,1636765049.212,7951
3522415,1636765049.214,7955
3522416,1636765049.216,7960
3522417,1636765049.218,7966
3522418,1636765049.22,7972
3522419,1636765049.222,7978
3522420,1636765049.224,7985
3522421,1636765049.226,7995
3522422,1636765049.228,8006
3522423,1636765049.23,8018
3522424,1636765049.232,8030
3522425,1636765049.234,8043
3522426,1636765049.236,8055
3522427,1636765049.238,8066
3522428,1636765049.24,8079
3522429,1636765049.242,8092
3522430,1636765049.244,8105
3522431,1636765049.246,8117
3522432,1636765049.248,8128
3522433,1636765049.25,8136
3522434,1636765049.252,8143
3522435,1636765049.254,8148
3522436,1636765049.256,8153
3522437,1636765049.258,8157
3522438,1636765049.26,8162
3522439,1636765049.262,8167
3522440,1636765049.264,8172
3522441,1636765049.266,8177
3522442,1636765049.268,8183
3522443,1636765049.27,8188
3522444,1636765049.272,8195
3522445,1636765049.274,8200
3522446,1636765049.276,8205
3522447,1636765049.278,8211
3522448,1636765049.28,8217
3522449,1636765049.282,8222
3522450,1636765049.284,8227
3522451,1636765049.286,8231
3522452,1636765049.288,8234
3522453,1636765049.29,8237
3522454,1636765049.292,8239
3522455,1636765049.294,8240
3522456,1636765049.296,8242
3522457,1636765049.298,8243
3522458,1636765049.3,8244
3522459,1636765049.302,8245
3522460,1636765049.304,8247
3522461,1636765049.306,8248
3522462,1636765049.308,8249
3522463,1636765049.31,8250
3522464,1636765049.312,8251
3522465,1636765049.314,8252
3522466,1636765049.316,8253
3522467,1636765049.318,8254
3522468,1636765049.32,8255
3522469,1636765049.322,8256
3522470,1636765049.324,8257
3522471,1636765049.326,8258
3522472,1636765049.328,8259
3522473,1636765049.33,8260
3522474,1636765049.332,8261
3522475,1636765049.334,8262
3522476,1636765049.336,8263
3522477,1636765049.338,8265
3522478,1636765049.34,8266
3522479,1636765049.342,8267
3522480,1636765049.344,8268
3522481,1636765049.346,8269
3522482,1636765049.348,8270
3522483,1636765049.35,8272
3522484,1636765049.352,8273
3522485,1636765049.354,8274
3522486,1636765049.356,8276
3522487,1636765049.358,8278
3522488,1636765049.36,8279
3522489,1636765049.362,8281
3522490,1636765049.364,8283
3522491,1636765049.366,8285
3522492,1636765049.368,8286
3522493,1636765049.37,8287
3522494,1636765049.372,8288
3522495,1636765049.374,8290
3522496,1636765049.376,8291
3522497,1636765049.378,8293
3522498,1636765049.38,8295
3522499,1636765049.382,8297
3522500,1636765049.384,8299
3522501,1636765049.386,8300
3522502,1636765049.388,8301
3522503,1636765049.39,8302
3522504,1636765049.392,8303
3522505,1636765049.394,8303
3522506,1636765049.396,8304
3522507,1636765049.398,8305
3522508,1636765049.4,8307
3522509,1636765049.402,8308
3522510,1636765049.404,8309
3522511,1636765049.406,8310
3522512,1636765049.408,8311
3522513,1636765049.41,8311
3522514,1636765049.412,8312
3522515,1636765049.414,8312
3522516,1636765049.416,8312
3522517,1636765049.418,8312
3522518,1636765049.42,8312
3522519,1636765049.422,8312
3522520,1636765049.424,8313
3522521,1636765049.426,8312
3522522,1636765049.428,8312
3522523,1636765049.43,8312
3522524,1636765049.432,8311
3522525,1636765049.434,8311
3522526,1636765049.436,8310
3522527,1636765049.438,8309
3522528,1636765049.44,8309
3522529,1636765049.442,8308
3522530,1636765049.444,8307
3522531,1636765049.446,8306
3522532,1636765049.448,8305
3522533,1636765049.45,8304
3522534,1636765049.452,8303
3522535,1636765049.454,8301
3522536,1636765049.456,8300
3522537,1636765049.458,8298
3522538,1636765049.46,8296
3522539,1636765049.462,8295
3522540,1636765049.464,8293
3522541,1636765049.466,8291
3522542,1636765049.468,8289
3522543,1636765049.47,8286
3522544,1636765049.472,8284
3522545,1636765049.474,8282
3522546,1636765049.476,8280
3522547,1636765049.478,8279
3522548,1636765049.48,8277
3522549,1636765049.482,8274
3522550,1636765049.484,8272
3522551,1636765049.486,8270
3522552,1636765049.488,8267
3522553,1636765049.49,8265
3522554,1636765049.492,8262
3522555,1636765049.494,8260
3522556,1636765049.496,8257
3522557,1636765049.498,8255
3522558,1636765049.5,8253
3522559,1636765049.502,8250
3522560,1636765049.504,8248
3522561,1636765049.506,8246
3522562,1636765049.508,8243
3522563,1636765049.51,8241
3522564,1636765049.512,8239
3522565,1636765049.514,8236
3522566,1636765049.516,8234
3522567,1636765049.518,8232
3522568,1636765049.52,8229
3522569,1636765049.522,8227
3522570,1636765049.524,8225
3522571,1636765049.526,8223
3522572,1636765049.528,8221
3522573,1636765049.53,8219
3522574,1636765049.532,8217
3522575,1636765049.534,8215
3522576,1636765049.536,8213
3522577,1636765049.538,8212
3522578,1636765049.54,8210
3522579,1636765049.542,8209
3522580,1636765049.544,8207
3522581,1636765049.546,8206
3522582,1636765049.548,8205
3522583,1636765049.55,8203
3522584,1636765049.552,8201
3522585,1636765049.554,8200
3522586,1636765049.556,8198
3522587,1636765049.558,8197
3522588,1636765049.56,8196
3522589,1636765049.562,8195
3522590,1636765049.564,8196
3522591,1636765049.566,8197
3522592,1636765049.568,8198
3522593,1636765049.57,8199
3522594,1636765049.572,8199
3522595,1636765049.574,8198
3522596,1636765049.576,8197
3522597,1636765049.578,8196
3522598,1636765049.58,8195
3522599,1636765049.582,8195
3522600,1636765049.584,8196
3522601,1636765049.586,8196
3522602,1636765049.588,8196
3522603,1636765049.59,8195
3522604,1636765049.592,8194
3522605,1636765049.594,8192
3522606,1636765049.596,8191
3522607,1636765049.598,8189
3522608,1636765049.6,8189
3522609,1636765049.602,8189
3522610,1636765049.604,8190
3522611,1636765049.606,8190
3522612,1636765049.608,8189
3522613,1636765049.61,8189
3522614,1636765049.612,8189
3522615,1636765049.614,8190
3522616,1636765049.616,8192
3522617,1636765049.618,8193
3522618,1636765049.62,8194
3522619,1636765049.622,8194
3522620,1636765049.624,8194
3522621,1636765049.626,8194
3522622,1636765049.628,8193
3522623,1636765049.63,8192
3522624,1636765049.632,8190
3522625,1636765049.634,8189
3522626,1636765049.636,8188
3522627,1636765049.638,8187
3522628,1636765049.64,8187
3522629,1636765049.642,8187
3522630,1636765049.644,8187
3522631,1636765049.646,8187
3522632,1636765049.648,8187
3522633,1636765049.65,8188
3522634,1636765049.652,8189
3522635,1636765049.654,8190
3522636,1636765049.656,8191
3522637,1636765049.658,8192
3522638,1636765049.66,8194
3522639,1636765049.662,8196
3522640,1636765049.664,8196
3522641,1636765049.666,8196
3522642,1636765049.668,8192
3522643,1636765049.67,8186
3522644,1636765049.672,8178
3522645,1636765049.674,8170
3522646,1636765049.676,8161
3522647,1636765049.678,8151
3522648,1636765049.68,8142
3522649,1636765049.682,8133
3522650,1636765049.684,8124
3522651,1636765049.686,8117
3522652,1636765049.688,8110
3522653,1636765049.69,8102
3522654,1636765049.692,8095
3522655,1636765049.694,8088
3522656,1636765049.696,8080
3522657,1636765049.698,8070
3522658,1636765049.7,8061
3522659,1636765049.702,8052
3522660,1636765049.704,8043
3522661,1636765049.706,8035
3522662,1636765049.708,8026
3522663,1636765049.71,8016
3522664,1636765049.712,8004
3522665,1636765049.714,7992
3522666,1636765049.716,7981
3522667,1636765049.718,7971
3522668,1636765049.72,7959
3522669,1636765049.722,7947
3522670,1636765049.724,7937
3522671,1636765049.726,7931
3522672,1636765049.728,7929
3522673,1636765049.73,7932
3522674,1636765049.732,7936
3522675,1636765049.734,7942
3522676,1636765049.736,7947
3522677,1636765049.738,7952
3522678,1636765049.74,7957
3522679,1636765049.742,7962
3522680,1636765049.744,7968
3522681,1636765049.746,7975
3522682,1636765049.748,7982
3522683,1636765049.75,7990
3522684,1636765049.752,7998
3522685,1636765049.754,8007
3522686,1636765049.756,8015
3522687,1636765049.758,8024
3522688,1636765049.76,8035
3522689,1636765049.762,8047
3522690,1636765049.764,8059
3522691,1636765049.766,8073
3522692,1636765049.768,8085
3522693,1636765049.77,8098
3522694,1636765049.772,8111
3522695,1636765049.774,8122
3522696,1636765049.776,8131
3522697,1636765049.778,8139
3522698,1636765049.78,8146
3522699,1636765049.782,8152
3522700,1636765049.784,8158
3522701,1636765049.786,8163
3522702,1636765049.788,8168
3522703,1636765049.79,8174
3522704,1636765049.792,8179
3522705,1636765049.794,8184
3522706,1636765049.796,8189
3522707,1636765049.798,8193
3522708,1636765049.8,8197
3522709,1636765049.802,8201
3522710,1636765049.804,8206
3522711,1636765049.806,8211
3522712,1636765049.808,8216
3522713,1636765049.81,8221
3522714,1636765049.812,8225
3522715,1636765049.814,8230
3522716,1636765049.816,8235
3522717,1636765049.818,8240
3522718,1636765049.82,8245
3522719,1636765049.822,8249
3522720,1636765049.824,8252
3522721,1636765049.826,8255
3522722,1636765049.828,8257
3522723,1636765049.83,8259
3522724,1636765049.832,8261
3522725,1636765049.834,8262
3522726,1636765049.836,8263
3522727,1636765049.838,8264
3522728,1636765049.84,8265
3522729,1636765049.842,8267
3522730,1636765049.844,8268
3522731,1636765049.846,8269
3522732,1636765049.848,8270
3522733,1636765049.85,8271
3522734,1636765049.852,8272
3522735,1636765049.854,8273
3522736,1636765049.856,8274
3522737,1636765049.858,8275
3522738,1636765049.86,8276
3522739,1636765049.862,8277
3522740,1636765049.864,8278
3522741,1636765049.866,8279
3522742,1636765049.868,8280
3522743,1636765049.87,8281
3522744,1636765049.872,8282
3522745,1636765049.874,8283
3522746,1636765049.876,8285
3522747,1636765049.878,8286
3522748,1636765049.88,8288
3522749,1636765049.882,8289
3522750,1636765049.884,8290
3522751,1636765049.886,8291
3522752,1636765049.888,8292
3522753,1636765049.89,8293
3522754,1636765049.892,8294
3522755,1636765049.894,8296
3522756,1636765049.896,8297
3522757,1636765049.898,8299
3522758,1636765049.9,8300
3522759,1636765049.902,8301
3522760,1636765049.904,8302
3522761,1636765049.906,8304
3522762,1636765049.908,8306
3522763,1636765049.91,8307
3522764,1636765049.912,8307
3522765,1636765049.914,8308
3522766,1636765049.916,8309
3522767,1636765049.918,8311
3522768,1636765049.92,8312
3522769,1636765049.922,8313
3522770,1636765049.924,8315
3522771,1636765049.926,8315
3522772,1636765049.928,8316
3522773,1636765049.93,8317
3522774,1636765049.932,8318
3522775,1636765049.934,8318
3522776,1636765049.936,8319
3522777,1636765049.938,8319
3522778,1636765049.94,8320
3522779,1636765049.942,8320
3522780,1636765049.944,8321
3522781,1636765049.946,8321
3522782,1636765049.948,8320
3522783,1636765049.95,8320
3522784,1636765049.952,8320
3522785,1636765049.954,8321
3522786,1636765049.956,8320
3522787,1636765049.958,8320
3522788,1636765049.96,8320
3522789,1636765049.962,8319
3522790,1636765049.964,8319
3522791,1636765049.966,8319
3522792,1636765049.968,8318
3522793,1636765049.97,8317
3522794,1636765049.972,8316
3522795,1636765049.974,8315
3522796,1636765049.976,8315
3522797,1636765049.978,8313
3522798,1636765049.98,8312
3522799,1636765049.982,8311
3522800,1636765049.984,8310
3522801,1636765049.986,8308
3522802,1636765049.988,8307
3522803,1636765049.99,8305
3522804,1636765049.992,8304
3522805,1636765049.994,8302
3522806,1636765049.996,8300
3522807,1636765049.998,8299
3522808,1636765050.0,8297
3522809,1636765050.002,8295
3522810,1636765050.004,8293
3522811,1636765050.006,8290
3522812,1636765050.008,8288
3522813,1636765050.01,8286
3522814,1636765050.012,8284
3522815,1636765050.014,8281
3522816,1636765050.016,8279
3522817,1636765050.018,8276
3522818,1636765050.02,8273
3522819,1636765050.022,8271
3522820,1636765050.024,8269
3522821,1636765050.026,8266
3522822,1636765050.028,8265
3522823,1636765050.03,8262
3522824,1636765050.032,8260
3522825,1636765050.034,8258
3522826,1636765050.036,8256
3522827,1636765050.038,8254
3522828,1636765050.04,8251
3522829,1636765050.042,8249
3522830,1636765050.044,8246
3522831,1636765050.046,8244
3522832,1636765050.048,8242
3522833,1636765050.05,8240
3522834,1636765050.052,8238
3522835,1636765050.054,8236
3522836,1636765050.056,8233
3522837,1636765050.058,8231
3522838,1636765050.06,8228
3522839,1636765050.062,8227
3522840,1636765050.064,8225
3522841,1636765050.066,8223
3522842,1636765050.068,8221
3522843,1636765050.07,8219
3522844,1636765050.072,8218
3522845,1636765050.074,8216
3522846,1636765050.076,8215
3522847,1636765050.078,8213
3522848,1636765050.08,8211
3522849,1636765050.082,8210
3522850,1636765050.084,8208
3522851,1636765050.086,8206
3522852,1636765050.088,8205
3522853,1636765050.09,8204
3522854,1636765050.092,8203
3522855,1636765050.094,8202
3522856,1636765050.096,8201
3522857,1636765050.098,8200
3522858,1636765050.1,8198
3522859,1636765050.102,8197
3522860,1636765050.104,8196
3522861,1636765050.106,8195
3522862,1636765050.108,8194
3522863,1636765050.11,8193
3522864,1636765050.112,8192
3522865,1636765050.114,8191
3522866,1636765050.116,8190
3522867,1636765050.118,8189
3522868,1636765050.12,8188
3522869,1636765050.122,8187
3522870,1636765050.124,8186
3522871,1636765050.126,8185
3522872,1636765050.128,8185
3522873,1636765050.13,8185
3522874,1636765050.132,8184
3522875,1636765050.134,8184
3522876,1636765050.136,8183
3522877,1636765050.138,8184
3522878,1636765050.14,8186
3522879,1636765050.142,8188
3522880,1636765050.144,8190
3522881,1636765050.146,8192
3522882,1636765050.148,8192
3522883,1636765050.15,8192
3522884,1636765050.152,8192
3522885,1636765050.154,8192
3522886,1636765050.156,8193
3522887,1636765050.158,8194
3522888,1636765050.16,8194
3522889,1636765050.162,8193
3522890,1636765050.164,8192
3522891,1636765050.166,8191
3522892,1636765050.168,8189
3522893,1636765050.17,8188
3522894,1636765050.172,8187
3522895,1636765050.174,8187
3522896,1636765050.176,8187
3522897,1636765050.178,8188
3522898,1636765050.18,8188
3522899,1636765050.182,8188
3522900,1636765050.184,8187
3522901,1636765050.186,8187
3522902,1636765050.188,8188
3522903,1636765050.19,8190
3522904,1636765050.192,8191
3522905,1636765050.194,8192
3522906,1636765050.196,8192
3522907,1636765050.198,8192
3522908,1636765050.2,8192
3522909,1636765050.202,8191
3522910,1636765050.204,8191
3522911,1636765050.206,8190
3522912,1636765050.208,8188
3522913,1636765050.21,8187
3522914,1636765050.212,8185
3522915,1636765050.214,8183
3522916,1636765050.216,8182
3522917,1636765050.218,8182
3522918,1636765050.22,8181
3522919,1636765050.222,8181
3522920,1636765050.224,8180
3522921,1636765050.226,8180
3522922,1636765050.228,8179
3522923,1636765050.23,8178
3522924,1636765050.232,8176
3522925,1636765050.234,8174
3522926,1636765050.236,8172
3522927,1636765050.238,8172
3522928,1636765050.24,8172
3522929,1636765050.242,8172
3522930,1636765050.244,8172
3522931,1636765050.246,8171
3522932,1636765050.248,8171
3522933,1636765050.25,8170
3522934,1636765050.252,8169
3522935,1636765050.254,8169
3522936,1636765050.256,8169
3522937,1636765050.258,8169
3522938,1636765050.26,8169
3522939,1636765050.262,8169
3522940,1636765050.264,8169
3522941,1636765050.266,8169
3522942,1636765050.268,8169
3522943,1636765050.27,8169
3522944,1636765050.272,8169
3522945,1636765050.274,8170
3522946,1636765050.276,8171
3522947,1636765050.278,8172
3522948,1636765050.28,8172
3522949,1636765050.282,8173
3522950,1636765050.284,8174
3522951,1636765050.286,8175
3522952,1636765050.288,8177
3522953,1636765050.29,8180
3522954,1636765050.292,8182
3522955,1636765050.294,8185
3522956,1636765050.296,8188
3522957,1636765050.298,8191
3522958,1636765050.3,8193
3522959,1636765050.302,8195
3522960,1636765050.304,8195
3522961,1636765050.306,8193
3522962,1636765050.308,8187
3522963,1636765050.31,8178
3522964,1636765050.312,8167
3522965,1636765050.314,8155
3522966,1636765050.316,8142
3522967,1636765050.318,8129
3522968,1636765050.32,8117
3522969,1636765050.322,8106
3522970,1636765050.324,8098
3522971,1636765050.326,8091
3522972,1636765050.328,8084
3522973,1636765050.33,8077
3522974,1636765050.332,8070
3522975,1636765050.334,8063
3522976,1636765050.336,8055
3522977,1636765050.338,8045
3522978,1636765050.34,8033
3522979,1636765050.342,8020
3522980,1636765050.344,8008
3522981,1636765050.346,7997
3522982,1636765050.348,7987
3522983,1636765050.35,7976
3522984,1636765050.352,7963
3522985,1636765050.354,7949
3522986,1636765050.356,7937
3522987,1636765050.358,7930
3522988,1636765050.36,7927
3522989,1636765050.362,7929
3522990,1636765050.364,7933
3522991,1636765050.366,7937
3522992,1636765050.368,7943
3522993,1636765050.37,7949
3522994,1636765050.372,7956
3522995,1636765050.374,7962
3522996,1636765050.376,7970
3522997,1636765050.378,7978
3522998,1636765050.38,7988
3522999,1636765050.382,7998
3523000,1636765050.384,8008
3523001,1636765050.386,8018
3523002,1636765050.388,8028
3523003,1636765050.39,8037
3523004,1636765050.392,8046
3523005,1636765050.394,8057
3523006,1636765050.396,8068
3523007,1636765050.398,8080
3523008,1636765050.4,8091
3523009,1636765050.402,8101
3523010,1636765050.404,8109
3523011,1636765050.406,8115
3523012,1636765050.408,8120
3523013,1636765050.41,8126
3523014,1636765050.412,8131
3523015,1636765050.414,8136
3523016,1636765050.416,8140
3523017,1636765050.418,8144
3523018,1636765050.42,8148
3523019,1636765050.422,8152
3523020,1636765050.424,8157
3523021,1636765050.426,8162
3523022,1636765050.428,8169
3523023,1636765050.43,8175
3523024,1636765050.432,8182
3523025,1636765050.434,8188
3523026,1636765050.436,8193
3523027,1636765050.438,8198
3523028,1636765050.44,8203
3523029,1636765050.442,8208
3523030,1636765050.444,8213
3523031,1636765050.446,8218
3523032,1636765050.448,8223
3523033,1636765050.45,8227
3523034,1636765050.452,8230
3523035,1636765050.454,8232
3523036,1636765050.456,8233
3523037,1636765050.458,8234
3523038,1636765050.46,8235
3523039,1636765050.462,8236
3523040,1636765050.464,8237
3523041,1636765050.466,8238
3523042,1636765050.468,8238
3523043,1636765050.47,8239
3523044,1636765050.472,8239
3523045,1636765050.474,8240
3523046,1636765050.476,8240
3523047,1636765050.478,8241
3523048,1636765050.48,8241
3523049,1636765050.482,8241
3523050,1636765050.484,8242
3523051,1636765050.486,8242
3523052,1636765050.488,8243
3523053,1636765050.49,8244
3523054,1636765050.492,8244
3523055,1636765050.494,8245
3523056,1636765050.496,8245
3523057,1636765050.498,8246
3523058,1636765050.5,8247
3523059,1636765050.502,8248
3523060,1636765050.504,8249
3523061,1636765050.506,8250
3523062,1636765050.508,8251
3523063,1636765050.51,8252
3523064,1636765050.512,8253
3523065,1636765050.514,8255
3523066,1636765050.516,8256
3523067,1636765050.518,8257
3523068,1636765050.52,8258
3523069,1636765050.522,8259
3523070,1636765050.524,8260
3523071,1636765050.526,8261
3523072,1636765050.528,8262
3523073,1636765050.53,8263
3523074,1636765050.532,8263
3523075,1636765050.534,8264
3523076,1636765050.536,8265
3523077,1636765050.538,8266
3523078,1636765050.54,8267
3523079,1636765050.542,8268
3523080,1636765050.544,8269
3523081,1636765050.546,8270
3523082,1636765050.548,8272
3523083,1636765050.55,8273
3523084,1636765050.552,8275
3523085,1636765050.554,8276
3523086,1636765050.556,8277
3523087,1636765050.558,8278
3523088,1636765050.56,8279
3523089,1636765050.562,8280
3523090,1636765050.564,8280
3523091,1636765050.566,8281
3523092,1636765050.568,8282
3523093,1636765050.57,8283
3523094,1636765050.572,8284
3523095,1636765050.574,8285
3523096,1636765050.576,8285
3523097,1636765050.578,8286
3523098,1636765050.58,8286
3523099,1636765050.582,8286
3523100,1636765050.584,8286
3523101,1636765050.586,8287
3523102,1636765050.588,8287
3523103,1636765050.59,8287
3523104,1636765050.592,8287
3523105,1636765050.594,8287
3523106,1636765050.596,8287
3523107,1636765050.598,8287
3523108,1636765050.6,8287
3523109,1636765050.602,8287
3523110,1636765050.604,8287
3523111,1636765050.606,8287
3523112,1636765050.608,8286
3523113,1636765050.61,8286
3523114,1636765050.612,8285
3523115,1636765050.614,8284
3523116,1636765050.616,8283
3523117,1636765050.618,8282
3523118,1636765050.62,8282
3523119,1636765050.622,8281
3523120,1636765050.624,8280
3523121,1636765050.626,8278
3523122,1636765050.628,8277
3523123,1636765050.63,8275
3523124,1636765050.632,8273
3523125,1636765050.634,8271
3523126,1636765050.636,8270
3523127,1636765050.638,8268
3523128,1636765050.64,8266
3523129,1636765050.642,8264
3523130,1636765050.644,8262
3523131,1636765050.646,8260
3523132,1636765050.648,8258
3523133,1636765050.65,8256
3523134,1636765050.652,8254
3523135,1636765050.654,8251
3523136,1636765050.656,8249
3523137,1636765050.658,8246
3523138,1636765050.66,8244
3523139,1636765050.662,8242
3523140,1636765050.664,8239
3523141,1636765050.666,8237
3523142,1636765050.668,8235
3523143,1636765050.67,8233
3523144,1636765050.672,8231
3523145,1636765050.674,8228
3523146,1636765050.676,8226
3523147,1636765050.678,8224
3523148,1636765050.68,8222
3523149,1636765050.682,8220
3523150,1636765050.684,8218
3523151,1636765050.686,8216
3523152,1636765050.688,8214
3523153,1636765050.69,8212
3523154,1636765050.692,8210
3523155,1636765050.694,8208
3523156,1636765050.696,8206
3523157,1636765050.698,8205
3523158,1636765050.7,8203
3523159,1636765050.702,8202
3523160,1636765050.704,8200
3523161,1636765050.706,8199
3523162,1636765050.708,8197
3523163,1636765050.71,8196
3523164,1636765050.712,8197
3523165,1636765050.714,8198
3523166,1636765050.716,8200
3523167,1636765050.718,8200
3523168,1636765050.72,8200
3523169,1636765050.722,8199
3523170,1636765050.724,8197
3523171,1636765050.726,8196
3523172,1636765050.728,8195
3523173,1636765050.73,8195
3523174,1636765050.732,8194
3523175,1636765050.734,8193
3523176,1636765050.736,8192
3523177,1636765050.738,8191
3523178,1636765050.74,8190
3523179,1636765050.742,8188
3523180,1636765050.744,8187
3523181,1636765050.746,8185
3523182,1636765050.748,8185
3523183,1636765050.75,8185
3523184,1636765050.752,8185
3523185,1636765050.754,8185
3523186,1636765050.756,8184
3523187,1636765050.758,8184
3523188,1636765050.76,8184
3523189,1636765050.762,8184
3523190,1636765050.764,8185
3523191,1636765050.766,8186
3523192,1636765050.768,8187
3523193,1636765050.77,8187
3523194,1636765050.772,8186
3523195,1636765050.774,8185
3523196,1636765050.776,8184
3523197,1636765050.778,8182
3523198,1636765050.78,8181
3523199,1636765050.782,8179
3523200,1636765050.784,8177
3523201,1636765050.786,8175
3523202,1636765050.788,8174
3523203,1636765050.79,8172
3523204,1636765050.792,8171
3523205,1636765050.794,8170
3523206,1636765050.796,8169
3523207,1636765050.798,8169
3523208,1636765050.8,8168
3523209,1636765050.802,8166
3523210,1636765050.804,8164
3523211,1636765050.806,8162
3523212,1636765050.808,8160
3523213,1636765050.81,8159
3523214,1636765050.812,8159
3523215,1636765050.814,8158
3523216,1636765050.816,8157
3523217,1636765050.818,8156
3523218,1636765050.82,8156
3523219,1636765050.822,8155
3523220,1636765050.824,8155
3523221,1636765050.826,8155
3523222,1636765050.828,8155
3523223,1636765050.83,8154
3523224,1636765050.832,8154
3523225,1636765050.834,8154
3523226,1636765050.836,8154
3523227,1636765050.838,8154
3523228,1636765050.84,8154
3523229,1636765050.842,8154
3523230,1636765050.844,8154
3523231,1636765050.846,8153
3523232,1636765050.848,8153
3523233,1636765050.85,8153
3523234,1636765050.852,8154
3523235,1636765050.854,8154
3523236,1636765050.856,8153
3523237,1636765050.858,8154
3523238,1636765050.86,8154
3523239,1636765050.862,8154
3523240,1636765050.864,8154
3523241,1636765050.866,8155
3523242,1636765050.868,8156
3523243,1636765050.87,8158
3523244,1636765050.872,8159
3523245,1636765050.874,8160
3523246,1636765050.876,8162
3523247,1636765050.878,8166
3523248,1636765050.88,8169
3523249,1636765050.882,8172
3523250,1636765050.884,8175
3523251,1636765050.886,8176
3523252,1636765050.888,8178
3523253,1636765050.89,8179
3523254,1636765050.892,8181
3523255,1636765050.894,8182
3523256,1636765050.896,8182
3523257,1636765050.898,8179
3523258,1636765050.9,8174
3523259,1636765050.902,8166
3523260,1636765050.904,8156
3523261,1636765050.906,8145
3523262,1636765050.908,8133
3523263,1636765050.91,8121
3523264,1636765050.912,8110
3523265,1636765050.914,8099
3523266,1636765050.916,8089
3523267,1636765050.918,8079
3523268,1636765050.92,8069
3523269,1636765050.922,8056
3523270,1636765050.924,8040
3523271,1636765050.926,8023
3523272,1636765050.928,8004
3523273,1636765050.93,7985
3523274,1636765050.932,7967
3523275,1636765050.934,7951
3523276,1636765050.936,7937
3523277,1636765050.938,7927
3523278,1636765050.94,7918
3523279,1636765050.942,7913
3523280,1636765050.944,7910
3523281,1636765050.946,7911
3523282,1636765050.948,7914
3523283,1636765050.95,7918
3523284,1636765050.952,7921
3523285,1636765050.954,7925
3523286,1636765050.956,7929
3523287,1636765050.958,7933
3523288,1636765050.96,7939
3523289,1636765050.962,7946
3523290,1636765050.964,7953
3523291,1636765050.966,7960
3523292,1636765050.968,7968
3523293,1636765050.97,7976
3523294,1636765050.972,7986
3523295,1636765050.974,7997
3523296,1636765050.976,8009
3523297,1636765050.978,8022
3523298,1636765050.98,8034
3523299,1636765050.982,8048
3523300,1636765050.984,8060
3523301,1636765050.986,8073
3523302,1636765050.988,8085
3523303,1636765050.99,8097
3523304,1636765050.992,8106
3523305,1636765050.994,8113
3523306,1636765050.996,8119
3523307,1636765050.998,8124
3523308,1636765051.0,8129
3523309,1636765051.002,8134
3523310,1636765051.004,8139
3523311,1636765051.006,8145
3523312,1636765051.008,8151
3523313,1636765051.01,8156
3523314,1636765051.012,8162
3523315,1636765051.014,8168
3523316,1636765051.016,8173
3523317,1636765051.018,8177
3523318,1636765051.02,8180
3523319,1636765051.022,8183
3523320,1636765051.024,8186
3523321,1636765051.026,8189
3523322,1636765051.028,8193
3523323,1636765051.03,8197
3523324,1636765051.032,8201
3523325,1636765051.034,8206
3523326,1636765051.036,8210
3523327,1636765051.038,8214
3523328,1636765051.04,8217
3523329,1636765051.042,8219
3523330,1636765051.044,8220
3523331,1636765051.046,8221
3523332,1636765051.048,8222
3523333,1636765051.05,8224
3523334,1636765051.052,8225
3523335,1636765051.054,8227
3523336,1636765051.056,8227
3523337,1636765051.058,8228
3523338,1636765051.06,8229
3523339,1636765051.062,8230
3523340,1636765051.064,8230
3523341,1636765051.066,8231
3523342,1636765051.068,8232
3523343,1636765051.07,8233
3523344,1636765051.072,8234
3523345,1636765051.074,8234
3523346,1636765051.076,8235
3523347,1636765051.078,8236
3523348,1636765051.08,8237
3523349,1636765051.082,8238
3523350,1636765051.084,8239
3523351,1636765051.086,8240
3523352,1636765051.088,8241
3523353,1636765051.09,8242
3523354,1636765051.092,8243
3523355,1636765051.094,8244
3523356,1636765051.096,8246
3523357,1636765051.098,8247
3523358,1636765051.1,8248
3523359,1636765051.102,8250
3523360,1636765051.104,8251
3523361,1636765051.106,8252
3523362,1636765051.108,8253
3523363,1636765051.11,8255
3523364,1636765051.112,8256
3523365,1636765051.114,8258
3523366,1636765051.116,8260
3523367,1636765051.118,8261
3523368,1636765051.12,8263
3523369,1636765051.122,8264
3523370,1636765051.124,8266
3523371,1636765051.126,8267
3523372,1636765051.128,8268
3523373,1636765051.13,8269
3523374,1636765051.132,8270
3523375,1636765051.134,8272
3523376,1636765051.136,8273
3523377,1636765051.138,8275
3523378,1636765051.14,8276
3523379,1636765051.142,8277
3523380,1636765051.144,8278
3523381,1636765051.146,8279
3523382,1636765051.148,8280
3523383,1636765051.15,8281
3523384,1636765051.152,8282
3523385,1636765051.154,8283
3523386,1636765051.156,8283
3523387,1636765051.158,8284
3523388,1636765051.16,8285
3523389,1636765051.162,8285
3523390,1636765051.164,8286
3523391,1636765051.166,8286
3523392,1636765051.168,8287
3523393,1636765051.17,8288
3523394,1636765051.172,8288
3523395,1636765051.174,8288
3523396,1636765051.176,8288
3523397,1636765051.178,8289
3523398,1636765051.18,8289
3523399,1636765051.182,8289
3523400,1636765051.184,8289
3523401,1636765051.186,8289
3523402,1636765051.188,8288
3523403,1636765051.19,8288
3523404,1636765051.192,8288
3523405,1636765051.194,8288
3523406,1636765051.196,8287
3523407,1636765051.198,8286
3523408,1636765051.2,8285
3523409,1636765051.202,8284
3523410,1636765051.204,8284
3523411,1636765051.206,8283
3523412,1636765051.208,8282
3523413,1636765051.21,8280
3523414,1636765051.212,8279
3523415,1636765051.214,8277
3523416,1636765051.216,8276
3523417,1636765051.218,8274
3523418,1636765051.22,8272
3523419,1636765051.222,8270
3523420,1636765051.224,8268
3523421,1636765051.226,8266
3523422,1636765051.228,8264
3523423,1636765051.23,8262
3523424,1636765051.232,8260
3523425,1636765051.234,8258
3523426,1636765051.236,8256
3523427,1636765051.238,8254
3523428,1636765051.24,8252
3523429,1636765051.242,8250
3523430,1636765051.244,8248
3523431,1636765051.246,8246
3523432,1636765051.248,8244
3523433,1636765051.25,8242
3523434,1636765051.252,8239
3523435,1636765051.254,8237
3523436,1636765051.256,8234
3523437,1636765051.258,8233
3523438,1636765051.26,8231
3523439,1636765051.262,8229
3523440,1636765051.264,8227
3523441,1636765051.266,8226
3523442,1636765051.268,8223
3523443,1636765051.27,8222
3523444,1636765051.272,8220
3523445,1636765051.274,8219
3523446,1636765051.276,8217
3523447,1636765051.278,8216
3523448,1636765051.28,8214
3523449,1636765051.282,8212
3523450,1636765051.284,8210
3523451,1636765051.286,8210
3523452,1636765051.288,8210
3523453,1636765051.29,8212
3523454,1636765051.292,8213
3523455,1636765051.294,8213
3523456,1636765051.296,8212
3523457,1636765051.298,8210
3523458,1636765051.3,8208
3523459,1636765051.302,8207
3523460,1636765051.304,8206
3523461,1636765051.306,8205
3523462,1636765051.308,8204
3523463,1636765051.31,8203
3523464,1636765051.312,8202
3523465,1636765051.314,8201
3523466,1636765051.316,8200
3523467,1636765051.318,8199
3523468,1636765051.32,8197
3523469,1636765051.322,8197
3523470,1636765051.324,8196
3523471,1636765051.326,8197
3523472,1636765051.328,8197
3523473,1636765051.33,8196
3523474,1636765051.332,8196
3523475,1636765051.334,8195
3523476,1636765051.336,8195
3523477,1636765051.338,8196
3523478,1636765051.34,8197
3523479,1636765051.342,8198
3523480,1636765051.344,8198
3523481,1636765051.346,8198
3523482,1636765051.348,8197
3523483,1636765051.35,8196
3523484,1636765051.352,8195
3523485,1636765051.354,8192
3523486,1636765051.356,8190
3523487,1636765051.358,8188
3523488,1636765051.36,8186
3523489,1636765051.362,8184
3523490,1636765051.364,8183
3523491,1636765051.366,8183
3523492,1636765051.368,8182
3523493,1636765051.37,8181
3523494,1636765051.372,8180
3523495,1636765051.374,8179
3523496,1636765051.376,8178
3523497,1636765051.378,8176
3523498,1636765051.38,8174
3523499,1636765051.382,8172
3523500,1636765051.384,8170
3523501,1636765051.386,8169
3523502,1636765051.388,8168
3523503,1636765051.39,8167
3523504,1636765051.392,8167
3523505,1636765051.394,8166
3523506,1636765051.396,8165
3523507,1636765051.398,8165
3523508,1636765051.4,8164
3523509,1636765051.402,8164
3523510,1636765051.404,8164
3523511,1636765051.406,8163
3523512,1636765051.408,8163
3523513,1636765051.41,8163
3523514,1636765051.412,8163
3523515,1636765051.414,8162
3523516,1636765051.416,8162
3523517,1636765051.418,8161
3523518,1636765051.42,8161
3523519,1636765051.422,8161
3523520,1636765051.424,8161
3523521,1636765051.426,8161
3523522,1636765051.428,8161
3523523,1636765051.43,8161
3523524,1636765051.432,8161
3523525,1636765051.434,8161
3523526,1636765051.436,8161
3523527,1636765051.438,8161
3523528,1636765051.44,8161
3523529,1636765051.442,8162
3523530,1636765051.444,8163
3523531,1636765051.446,8164
3523532,1636765051.448,8166
3523533,1636765051.45,8169
3523534,1636765051.452,8172
3523535,1636765051.454,8175
3523536,1636765051.456,8178
3523537,1636765051.458,8181
3523538,1636765051.46,8183
3523539,1636765051.462,8185
3523540,1636765051.464,8186
3523541,1636765051.466,8188
3523542,1636765051.468,8188
3523543,1636765051.47,8188
3523544,1636765051.472,8186
3523545,1636765051.474,8181
3523546,1636765051.476,8175
3523547,1636765051.478,8167
3523548,1636765051.48,8157
3523549,1636765051.482,8146
3523550,1636765051.484,8134
3523551,1636765051.486,8122
3523552,1636765051.488,8110
3523553,1636765051.49,8100
3523554,1636765051.492,8089
3523555,1636765051.494,8079
3523556,1636765051.496,8066
3523557,1636765051.498,8052
3523558,1636765051.5,8036
3523559,1636765051.502,8019
3523560,1636765051.504,8000
3523561,1636765051.506,7981
3523562,1636765051.508,7963
3523563,1636765051.51,7948
3523564,1636765051.512,7936
3523565,1636765051.514,7928
3523566,1636765051.516,7922
3523567,1636765051.518,7919
3523568,1636765051.52,7919
3523569,1636765051.522,7922
3523570,1636765051.524,7925
3523571,1636765051.526,7928
3523572,1636765051.528,7932
3523573,1636765051.53,7936
3523574,1636765051.532,7941
3523575,1636765051.534,7947
3523576,1636765051.536,7954
3523577,1636765051.538,7961
3523578,1636765051.54,7967
3523579,1636765051.542,7973
3523580,1636765051.544,7981
3523581,1636765051.546,7990
3523582,1636765051.548,8001
3523583,1636765051.55,8013
3523584,1636765051.552,8025
3523585,1636765051.554,8038
3523586,1636765051.556,8052
3523587,1636765051.558,8065
3523588,1636765051.56,8078
3523589,1636765051.562,8089
3523590,1636765051.564,8100
3523591,1636765051.566,8110
3523592,1636765051.568,8118
3523593,1636765051.57,8124
3523594,1636765051.572,8129
3523595,1636765051.574,8135
3523596,1636765051.576,8141
3523597,1636765051.578,8147
3523598,1636765051.58,8152
3523599,1636765051.582,8158
3523600,1636765051.584,8163
3523601,1636765051.586,8169
3523602,1636765051.588,8174
3523603,1636765051.59,8179
3523604,1636765051.592,8184
3523605,1636765051.594,8188
3523606,1636765051.596,8191
3523607,1636765051.598,8193
3523608,1636765051.6,8196
3523609,1636765051.602,8200
3523610,1636765051.604,8203
3523611,1636765051.606,8207
3523612,1636765051.608,8211
3523613,1636765051.61,8215
3523614,1636765051.612,8219
3523615,1636765051.614,8222
3523616,1636765051.616,8224
3523617,1636765051.618,8226
3523618,1636765051.62,8227
3523619,1636765051.622,8229
3523620,1636765051.624,8230
3523621,1636765051.626,8231
3523622,1636765051.628,8232
3523623,1636765051.63,8233
3523624,1636765051.632,8234
3523625,1636765051.634,8235
3523626,1636765051.636,8236
3523627,1636765051.638,8236
3523628,1636765051.64,8237
3523629,1636765051.642,8238
3523630,1636765051.644,8238
3523631,1636765051.646,8239
3523632,1636765051.648,8240
3523633,1636765051.65,8241
3523634,1636765051.652,8243
3523635,1636765051.654,8246
3523636,1636765051.656,8250
3523637,1636765051.658,8255
3523638,1636765051.66,8260
3523639,1636765051.662,8263
3523640,1636765051.664,8265
3523641,1636765051.666,8265
3523642,1636765051.668,8265
3523643,1636765051.67,8265
3523644,1636765051.672,8265
3523645,1636765051.674,8265
3523646,1636765051.676,8265
3523647,1636765051.678,8266
3523648,1636765051.68,8266
3523649,1636765051.682,8267
3523650,1636765051.684,8268
3523651,1636765051.686,8269
3523652,1636765051.688,8270
3523653,1636765051.69,8271
3523654,1636765051.692,8272
3523655,1636765051.694,8273
3523656,1636765051.696,8274
3523657,1636765051.698,8275
3523658,1636765051.7,8276
3523659,1636765051.702,8277
3523660,1636765051.704,8278
3523661,1636765051.706,8279
3523662,1636765051.708,8280
3523663,1636765051.71,8281
3523664,1636765051.712,8282
3523665,1636765051.714,8283
3523666,1636765051.716,8283
3523667,1636765051.718,8284
3523668,1636765051.72,8285
3523669,1636765051.722,8286
3523670,1636765051.724,8287
3523671,1636765051.726,8287
3523672,1636765051.728,8288
3523673,1636765051.73,8289
3523674,1636765051.732,8289
3523675,1636765051.734,8289
3523676,1636765051.736,8290
3523677,1636765051.738,8291
3523678,1636765051.74,8291
3523679,1636765051.742,8292
3523680,1636765051.744,8292
3523681,1636765051.746,8292
3523682,1636765051.748,8292
3523683,1636765051.75,8292
3523684,1636765051.752,8292
3523685,1636765051.754,8292
3523686,1636765051.756,8291
3523687,1636765051.758,8291
3523688,1636765051.76,8291
3523689,1636765051.762,8291
3523690,1636765051.764,8291
3523691,1636765051.766,8290
3523692,1636765051.768,8289
3523693,1636765051.77,8288
3523694,1636765051.772,8287
3523695,1636765051.774,8286
3523696,1636765051.776,8285
3523697,1636765051.778,8284
3523698,1636765051.78,8283
3523699,1636765051.782,8282
3523700,1636765051.784,8281
3523701,1636765051.786,8280
3523702,1636765051.788,8278
3523703,1636765051.79,8277
3523704,1636765051.792,8275
3523705,1636765051.794,8273
3523706,1636765051.796,8271
3523707,1636765051.798,8269
3523708,1636765051.8,8267
3523709,1636765051.802,8265
3523710,1636765051.804,8263
3523711,1636765051.806,8261
3523712,1636765051.808,8259
3523713,1636765051.81,8256
3523714,1636765051.812,8254
3523715,1636765051.814,8252
3523716,1636765051.816,8250
3523717,1636765051.818,8247
3523718,1636765051.82,8245
3523719,1636765051.822,8243
3523720,1636765051.824,8240
3523721,1636765051.826,8238
3523722,1636765051.828,8236
3523723,1636765051.83,8234
3523724,1636765051.832,8232
3523725,1636765051.834,8230
3523726,1636765051.836,8228
3523727,1636765051.838,8226
3523728,1636765051.84,8223
3523729,1636765051.842,8221
3523730,1636765051.844,8219
3523731,1636765051.846,8218
3523732,1636765051.848,8217
3523733,1636765051.85,8215
3523734,1636765051.852,8213
3523735,1636765051.854,8211
3523736,1636765051.856,8209
3523737,1636765051.858,8208
3523738,1636765051.86,8207
3523739,1636765051.862,8208
3523740,1636765051.864,8209
3523741,1636765051.866,8210
3523742,1636765051.868,8211
3523743,1636765051.87,8210
3523744,1636765051.872,8208
3523745,1636765051.874,8207
3523746,1636765051.876,8206
3523747,1636765051.878,8205
3523748,1636765051.88,8204
3523749,1636765051.882,8204
3523750,1636765051.884,8204
3523751,1636765051.886,8203
3523752,1636765051.888,8201
3523753,1636765051.89,8200
3523754,1636765051.892,8199
3523755,1636765051.894,8199
3523756,1636765051.896,8199
3523757,1636765051.898,8199
3523758,1636765051.9,8200
3523759,1636765051.902,8201
3523760,1636765051.904,8201
3523761,1636765051.906,8202
3523762,1636765051.908,8202
3523763,1636765051.91,8203
3523764,1636765051.912,8205
3523765,1636765051.914,8207
3523766,1636765051.916,8209
3523767,1636765051.918,8211
3523768,1636765051.92,8213
3523769,1636765051.922,8213
3523770,1636765051.924,8213
3523771,1636765051.926,8211
3523772,1636765051.928,8206
3523773,1636765051.93,8199
3523774,1636765051.932,8190
3523775,1636765051.934,8179
3523776,1636765051.936,8167
3523777,1636765051.938,8154
3523778,1636765051.94,8143
3523779,1636765051.942,8133
3523780,1636765051.944,8122
3523781,1636765051.946,8112
3523782,1636765051.948,8101
3523783,1636765051.95,8090
3523784,1636765051.952,8081
3523785,1636765051.954,8073
3523786,1636765051.956,8066
3523787,1636765051.958,8059
3523788,1636765051.96,8051
3523789,1636765051.962,8044
3523790,1636765051.964,8036
3523791,1636765051.966,8026
3523792,1636765051.968,8013
3523793,1636765051.97,7998
3523794,1636765051.972,7981
3523795,1636765051.974,7965
3523796,1636765051.976,7952
3523797,1636765051.978,7944
3523798,1636765051.98,7940
3523799,1636765051.982,7935
3523800,1636765051.984,7931
3523801,1636765051.986,7928
3523802,1636765051.988,7925
3523803,1636765051.99,7923
3523804,1636765051.992,7923
3523805,1636765051.994,7924
3523806,1636765051.996,7927
3523807,1636765051.998,7932
3523808,1636765052.0,7938
3523809,1636765052.002,7944
3523810,1636765052.004,7951
3523811,1636765052.006,7959
3523812,1636765052.008,7967
3523813,1636765052.01,7977
3523814,1636765052.012,7986
3523815,1636765052.014,7996
3523816,1636765052.016,8004
3523817,1636765052.018,8012
3523818,1636765052.02,8020
3523819,1636765052.022,8027
3523820,1636765052.024,8033
3523821,1636765052.026,8039
3523822,1636765052.028,8044
3523823,1636765052.03,8050
3523824,1636765052.032,8056
3523825,1636765052.034,8064
3523826,1636765052.036,8072
3523827,1636765052.038,8080
3523828,1636765052.04,8089
3523829,1636765052.042,8097
3523830,1636765052.044,8105
3523831,1636765052.046,8112
3523832,1636765052.048,8119
3523833,1636765052.05,8127
3523834,1636765052.052,8134
3523835,1636765052.054,8140
3523836,1636765052.056,8146
3523837,1636765052.058,8151
3523838,1636765052.06,8156
3523839,1636765052.062,8161
3523840,1636765052.064,8165
3523841,1636765052.066,8170
3523842,1636765052.068,8175
3523843,1636765052.07,8179
3523844,1636765052.072,8184
3523845,1636765052.074,8189
3523846,1636765052.076,8195
3523847,1636765052.078,8201
3523848,1636765052.08,8207
3523849,1636765052.082,8213
3523850,1636765052.084,8218
3523851,1636765052.086,8222
3523852,1636765052.088,8227
3523853,1636765052.09,8231
3523854,1636765052.092,8235
3523855,1636765052.094,8239
3523856,1636765052.096,8242
3523857,1636765052.098,8244
3523858,1636765052.1,8245
3523859,1636765052.102,8247
3523860,1636765052.104,8249
3523861,1636765052.106,8251
3523862,1636765052.108,8252
3523863,1636765052.11,8254
3523864,1636765052.112,8255
3523865,1636765052.114,8256
3523866,1636765052.116,8257
3523867,1636765052.118,8258
3523868,1636765052.12,8260
3523869,1636765052.122,8261
3523870,1636765052.124,8263
3523871,1636765052.126,8264
3523872,1636765052.128,8265
3523873,1636765052.13,8266
3523874,1636765052.132,8267
3523875,1636765052.134,8268
3523876,1636765052.136,8269
3523877,1636765052.138,8270
3523878,1636765052.14,8271
3523879,1636765052.142,8273
3523880,1636765052.144,8274
3523881,1636765052.146,8275
3523882,1636765052.148,8276
3523883,1636765052.15,8277
3523884,1636765052.152,8278
3523885,1636765052.154,8279
3523886,1636765052.156,8280
3523887,1636765052.158,8282
3523888,1636765052.16,8283
3523889,1636765052.162,8285
3523890,1636765052.164,8287
3523891,1636765052.166,8288
3523892,1636765052.168,8289
3523893,1636765052.17,8289
3523894,1636765052.172,8290
3523895,1636765052.174,8291
3523896,1636765052.176,8293
3523897,1636765052.178,8294
3523898,1636765052.18,8295
3523899,1636765052.182,8296
3523900,1636765052.184,8297
3523901,1636765052.186,8297
3523902,1636765052.188,8298
3523903,1636765052.19,8299
3523904,1636765052.192,8300
3523905,1636765052.194,8301
3523906,1636765052.196,8302
3523907,1636765052.198,8303
3523908,1636765052.2,8303
3523909,1636765052.202,8304
3523910,1636765052.204,8304
3523911,1636765052.206,8304
3523912,1636765052.208,8304
3523913,1636765052.21,8305
3523914,1636765052.212,8305
3523915,1636765052.214,8305
3523916,1636765052.216,8305
3523917,1636765052.218,8305
3523918,1636765052.22,8305
3523919,1636765052.222,8305
3523920,1636765052.224,8305
3523921,1636765052.226,8304
3523922,1636765052.228,8304
3523923,1636765052.23,8303
3523924,1636765052.232,8303
3523925,1636765052.234,8303
3523926,1636765052.236,8302
3523927,1636765052.238,8301
3523928,1636765052.24,8300
3523929,1636765052.242,8298
3523930,1636765052.244,8297
3523931,1636765052.246,8296
3523932,1636765052.248,8294
3523933,1636765052.25,8293
3523934,1636765052.252,8291
3523935,1636765052.254,8290
3523936,1636765052.256,8288
3523937,1636765052.258,8286
3523938,1636765052.26,8284
3523939,1636765052.262,8282
3523940,1636765052.264,8280
3523941,1636765052.266,8278
3523942,1636765052.268,8276
3523943,1636765052.27,8273
3523944,1636765052.272,8271
3523945,1636765052.274,8269
3523946,1636765052.276,8267
3523947,1636765052.278,8264
3523948,1636765052.28,8262
3523949,1636765052.282,8260
3523950,1636765052.284,8257
3523951,1636765052.286,8254
3523952,1636765052.288,8251
3523953,1636765052.29,8249
3523954,1636765052.292,8246
3523955,1636765052.294,8244
3523956,1636765052.296,8242
3523957,1636765052.298,8239
3523958,1636765052.3,8236
3523959,1636765052.302,8234
3523960,1636765052.304,8232
3523961,1636765052.306,8230
3523962,1636765052.308,8228
3523963,1636765052.31,8226
3523964,1636765052.312,8224
3523965,1636765052.314,8222
3523966,1636765052.316,8220
3523967,1636765052.318,8217
3523968,1636765052.32,8215
3523969,1636765052.322,8213
3523970,1636765052.324,8212
3523971,1636765052.326,8210
3523972,1636765052.328,8208
3523973,1636765052.33,8206
3523974,1636765052.332,8204
3523975,1636765052.334,8202
3523976,1636765052.336,8201
3523977,1636765052.338,8199
3523978,1636765052.34,8198
3523979,1636765052.342,8196
3523980,1636765052.344,8194
3523981,1636765052.346,8193
3523982,1636765052.348,8191
3523983,1636765052.35,8190
3523984,1636765052.352,8189
3523985,1636765052.354,8188
3523986,1636765052.356,8187
3523987,1636765052.358,8186
3523988,1636765052.36,8185
3523989,1636765052.362,8183
3523990,1636765052.364,8182
3523991,1636765052.366,8181
3523992,1636765052.368,8181
3523993,1636765052.37,8180
3523994,1636765052.372,8179
3523995,1636765052.374,8179
3523996,1636765052.376,8178
3523997,1636765052.378,8177
3523998,1636765052.38,8177
3523999,1636765052.382,8176
3524000,1636765052.384,8175
3524001,1636765052.386,8174
3524002,1636765052.388,8174
3524003,1636765052.39,8174
3524004,1636765052.392,8173
3524005,1636765052.394,8173
3524006,1636765052.396,8172
3524007,1636765052.398,8172
3524008,1636765052.4,8171
3524009,1636765052.402,8170
3524010,1636765052.404,8169
3524011,1636765052.406,8169
3524012,1636765052.408,8169
3524013,1636765052.41,8169
3524014,1636765052.412,8169
3524015,1636765052.414,8168
3524016,1636765052.416,8167
3524017,1636765052.418,8167
3524018,1636765052.42,8166
3524019,1636765052.422,8166
3524020,1636765052.424,8166
3524021,1636765052.426,8166
3524022,1636765052.428,8166
3524023,1636765052.43,8165
3524024,1636765052.432,8165
3524025,1636765052.434,8166
3524026,1636765052.436,8167
3524027,1636765052.438,8169
3524028,1636765052.44,8172
3524029,1636765052.442,8174
3524030,1636765052.444,8175
3524031,1636765052.446,8176
3524032,1636765052.448,8176
3524033,1636765052.45,8177
3524034,1636765052.452,8177
3524035,1636765052.454,8177
3524036,1636765052.456,8178
3524037,1636765052.458,8178
3524038,1636765052.46,8178
3524039,1636765052.462,8178
3524040,1636765052.464,8177
3524041,1636765052.466,8177
3524042,1636765052.468,8176
3524043,1636765052.47,8176
3524044,1636765052.472,8177
3524045,1636765052.474,8177
3524046,1636765052.476,8177
3524047,1636765052.478,8178
3524048,1636765052.48,8178
3524049,1636765052.482,8178
3524050,1636765052.484,8179
3524051,1636765052.486,8180
3524052,1636765052.488,8182
3524053,1636765052.49,8185
3524054,1636765052.492,8187
3524055,1636765052.494,8188
3524056,1636765052.496,8189
3524057,1636765052.498,8189
3524058,1636765052.5,8189
3524059,1636765052.502,8188
3524060,1636765052.504,8188
3524061,1636765052.506,8187
3524062,1636765052.508,8187
3524063,1636765052.51,8187
3524064,1636765052.512,8187
3524065,1636765052.514,8188
3524066,1636765052.516,8189
3524067,1636765052.518,8189
3524068,1636765052.52,8190
3524069,1636765052.522,8190
3524070,1636765052.524,8190
3524071,1636765052.526,8191
3524072,1636765052.528,8191
3524073,1636765052.53,8191
3524074,1636765052.532,8190
3524075,1636765052.534,8188
3524076,1636765052.536,8185
3524077,1636765052.538,8179
3524078,1636765052.54,8171
3524079,1636765052.542,8160
3524080,1636765052.544,8146
3524081,1636765052.546,8132
3524082,1636765052.548,8117
3524083,1636765052.55,8103
3524084,1636765052.552,8089
3524085,1636765052.554,8076
3524086,1636765052.556,8064
3524087,1636765052.558,8052
3524088,1636765052.56,8043
3524089,1636765052.562,8035
3524090,1636765052.564,8028
3524091,1636765052.566,8022
3524092,1636765052.568,8016
3524093,1636765052.57,8008
3524094,1636765052.572,7997
3524095,1636765052.574,7984
3524096,1636765052.576,7973
3524097,1636765052.578,7964
3524098,1636765052.58,7956
3524099,1636765052.582,7950
3524100,1636765052.584,7946
3524101,1636765052.586,7943
3524102,1636765052.588,7941
3524103,1636765052.59,7940
3524104,1636765052.592,7938
3524105,1636765052.594,7938
3524106,1636765052.596,7939
3524107,1636765052.598,7941
3524108,1636765052.6,7944
3524109,1636765052.602,7950
3524110,1636765052.604,7958
3524111,1636765052.606,7967
3524112,1636765052.608,7977
3524113,1636765052.61,7987
3524114,1636765052.612,7998
3524115,1636765052.614,8008
3524116,1636765052.616,8018
3524117,1636765052.618,8028
3524118,1636765052.62,8036
3524119,1636765052.622,8043
3524120,1636765052.624,8050
3524121,1636765052.626,8057
3524122,1636765052.628,8063
3524123,1636765052.63,8068
3524124,1636765052.632,8074
3524125,1636765052.634,8080
3524126,1636765052.636,8086
3524127,1636765052.638,8093
3524128,1636765052.64,8100
3524129,1636765052.642,8107
3524130,1636765052.644,8114
3524131,1636765052.646,8121
3524132,1636765052.648,8127
3524133,1636765052.65,8132
3524134,1636765052.652,8138
3524135,1636765052.654,8143
3524136,1636765052.656,8149
3524137,1636765052.658,8154
3524138,1636765052.66,8158
3524139,1636765052.662,8163
3524140,1636765052.664,8167
3524141,1636765052.666,8172
3524142,1636765052.668,8179
3524143,1636765052.67,8185
3524144,1636765052.672,8192
3524145,1636765052.674,8197
3524146,1636765052.676,8203
3524147,1636765052.678,8208
3524148,1636765052.68,8213
3524149,1636765052.682,8218
3524150,1636765052.684,8222
3524151,1636765052.686,8226
3524152,1636765052.688,8230
3524153,1636765052.69,8233
3524154,1636765052.692,8236
3524155,1636765052.694,8238
3524156,1636765052.696,8239
3524157,1636765052.698,8240
3524158,1636765052.7,8242
3524159,1636765052.702,8243
3524160,1636765052.704,8244
3524161,1636765052.706,8245
3524162,1636765052.708,8246
3524163,1636765052.71,8247
3524164,1636765052.712,8248
3524165,1636765052.714,8249
3524166,1636765052.716,8250
3524167,1636765052.718,8251
3524168,1636765052.72,8252
3524169,1636765052.722,8253
3524170,1636765052.724,8254
3524171,1636765052.726,8255
3524172,1636765052.728,8256
3524173,1636765052.73,8257
3524174,1636765052.732,8258
3524175,1636765052.734,8259
3524176,1636765052.736,8260
3524177,1636765052.738,8261
3524178,1636765052.74,8262
3524179,1636765052.742,8263
3524180,1636765052.744,8264
3524181,1636765052.746,8265
3524182,1636765052.748,8267
3524183,1636765052.75,8268
3524184,1636765052.752,8269
3524185,1636765052.754,8271
3524186,1636765052.756,8272
3524187,1636765052.758,8273
3524188,1636765052.76,8275
3524189,1636765052.762,8276
3524190,1636765052.764,8277
3524191,1636765052.766,8278
3524192,1636765052.768,8279
3524193,1636765052.77,8281
3524194,1636765052.772,8283
3524195,1636765052.774,8284
3524196,1636765052.776,8286
3524197,1636765052.778,8287
3524198,1636765052.78,8287
3524199,1636765052.782,8288
3524200,1636765052.784,8289
3524201,1636765052.786,8290
3524202,1636765052.788,8290
3524203,1636765052.79,8292
3524204,1636765052.792,8293
3524205,1636765052.794,8294
3524206,1636765052.796,8295
3524207,1636765052.798,8296
3524208,1636765052.8,8297
3524209,1636765052.802,8298
3524210,1636765052.804,8299
3524211,1636765052.806,8299
3524212,1636765052.808,8300
3524213,1636765052.81,8301
3524214,1636765052.812,8301
3524215,1636765052.814,8302
3524216,1636765052.816,8303
3524217,1636765052.818,8304
3524218,1636765052.82,8304
3524219,1636765052.822,8305
3524220,1636765052.824,8306
3524221,1636765052.826,8306
3524222,1636765052.828,8306
3524223,1636765052.83,8306
3524224,1636765052.832,8306
3524225,1636765052.834,8306
3524226,1636765052.836,8305
3524227,1636765052.838,8305
3524228,1636765052.84,8304
3524229,1636765052.842,8304
3524230,1636765052.844,8304
3524231,1636765052.846,8304
3524232,1636765052.848,8303
3524233,1636765052.85,8302
3524234,1636765052.852,8302
3524235,1636765052.854,8301
3524236,1636765052.856,8299
3524237,1636765052.858,8298
3524238,1636765052.86,8297
3524239,1636765052.862,8295
3524240,1636765052.864,8294
3524241,1636765052.866,8292
3524242,1636765052.868,8290
3524243,1636765052.87,8288
3524244,1636765052.872,8286
3524245,1636765052.874,8284
3524246,1636765052.876,8283
3524247,1636765052.878,8281
3524248,1636765052.88,8279
3524249,1636765052.882,8277
3524250,1636765052.884,8275
3524251,1636765052.886,8273
3524252,1636765052.888,8271
3524253,1636765052.89,8269
3524254,1636765052.892,8266
3524255,1636765052.894,8264
3524256,1636765052.896,8261
3524257,1636765052.898,8259
3524258,1636765052.9,8256
3524259,1636765052.902,8254
3524260,1636765052.904,8251
3524261,1636765052.906,8249
3524262,1636765052.908,8247
3524263,1636765052.91,8244
3524264,1636765052.912,8242
3524265,1636765052.914,8240
3524266,1636765052.916,8238
3524267,1636765052.918,8236
3524268,1636765052.92,8234
3524269,1636765052.922,8232
3524270,1636765052.924,8230
3524271,1636765052.926,8228
3524272,1636765052.928,8226
3524273,1636765052.93,8224
3524274,1636765052.932,8222
3524275,1636765052.934,8220
3524276,1636765052.936,8218
3524277,1636765052.938,8216
3524278,1636765052.94,8213
3524279,1636765052.942,8211
3524280,1636765052.944,8210
3524281,1636765052.946,8208
3524282,1636765052.948,8206
3524283,1636765052.95,8204
3524284,1636765052.952,8202
3524285,1636765052.954,8201
3524286,1636765052.956,8199
3524287,1636765052.958,8198
3524288,1636765052.96,8197
3524289,1636765052.962,8196
3524290,1636765052.964,8194
3524291,1636765052.966,8193
3524292,1636765052.968,8191
3524293,1636765052.97,8190
3524294,1636765052.972,8189
3524295,1636765052.974,8188
3524296,1636765052.976,8187
3524297,1636765052.978,8186
3524298,1636765052.98,8185
3524299,1636765052.982,8184
3524300,1636765052.984,8183
3524301,1636765052.986,8182
3524302,1636765052.988,8182
3524303,1636765052.99,8181
3524304,1636765052.992,8181
3524305,1636765052.994,8181
3524306,1636765052.996,8181
3524307,1636765052.998,8181
3524308,1636765053.0,8181
3524309,1636765053.002,8180
3524310,1636765053.004,8180
3524311,1636765053.006,8179
3524312,1636765053.008,8179
3524313,1636765053.01,8179
3524314,1636765053.012,8181
3524315,1636765053.014,8184
3524316,1636765053.016,8187
3524317,1636765053.018,8189
3524318,1636765053.02,8189
