,times,values
1760000,1645889021.752,8215
1760001,1645889021.754,8214
1760002,1645889021.756,8214
1760003,1645889021.758,8213
1760004,1645889021.76,8212
1760005,1645889021.762,8212
1760006,1645889021.764,8213
1760007,1645889021.766,8215
1760008,1645889021.768,8218
1760009,1645889021.77,8220
1760010,1645889021.772,8222
1760011,1645889021.774,8223
1760012,1645889021.776,8222
1760013,1645889021.778,8220
1760014,1645889021.78,8218
1760015,1645889021.782,8214
1760016,1645889021.784,8211
1760017,1645889021.786,8207
1760018,1645889021.788,8203
1760019,1645889021.79,8199
1760020,1645889021.792,8196
1760021,1645889021.794,8192
1760022,1645889021.796,8189
1760023,1645889021.798,8186
1760024,1645889021.8,8183
1760025,1645889021.802,8180
1760026,1645889021.804,8179
1760027,1645889021.806,8178
1760028,1645889021.808,8177
1760029,1645889021.81,8177
1760030,1645889021.812,8177
1760031,1645889021.814,8176
1760032,1645889021.816,8176
1760033,1645889021.818,8175
1760034,1645889021.82,8174
1760035,1645889021.822,8174
1760036,1645889021.824,8173
1760037,1645889021.826,8173
1760038,1645889021.828,8173
1760039,1645889021.83,8173
1760040,1645889021.832,8173
1760041,1645889021.834,8172
1760042,1645889021.836,8172
1760043,1645889021.838,8172
1760044,1645889021.84,8172
1760045,1645889021.842,8172
1760046,1645889021.844,8171
1760047,1645889021.846,8171
1760048,1645889021.848,8171
1760049,1645889021.85,8171
1760050,1645889021.852,8170
1760051,1645889021.854,8170
1760052,1645889021.856,8170
1760053,1645889021.858,8171
1760054,1645889021.86,8171
1760055,1645889021.862,8172
1760056,1645889021.864,8172
1760057,1645889021.866,8172
1760058,1645889021.868,8172
1760059,1645889021.87,8172
1760060,1645889021.872,8173
1760061,1645889021.874,8173
1760062,1645889021.876,8173
1760063,1645889021.878,8173
1760064,1645889021.88,8173
1760065,1645889021.882,8171
1760066,1645889021.884,8168
1760067,1645889021.886,8165
1760068,1645889021.888,8166
1760069,1645889021.89,8172
1760070,1645889021.892,8183
1760071,1645889021.894,8199
1760072,1645889021.896,8220
1760073,1645889021.898,8243
1760074,1645889021.9,8265
1760075,1645889021.902,8285
1760076,1645889021.904,8305
1760077,1645889021.906,8331
1760078,1645889021.908,8361
1760079,1645889021.91,8386
1760080,1645889021.912,8388
1760081,1645889021.914,8359
1760082,1645889021.916,8304
1760083,1645889021.918,8235
1760084,1645889021.92,8170
1760085,1645889021.922,8122
1760086,1645889021.924,8093
1760087,1645889021.926,8083
1760088,1645889021.928,8085
1760089,1645889021.93,8093
1760090,1645889021.932,8104
1760091,1645889021.934,8114
1760092,1645889021.936,8126
1760093,1645889021.938,8139
1760094,1645889021.94,8151
1760095,1645889021.942,8159
1760096,1645889021.944,8164
1760097,1645889021.946,8166
1760098,1645889021.948,8166
1760099,1645889021.95,8166
1760100,1645889021.952,8166
1760101,1645889021.954,8166
1760102,1645889021.956,8166
1760103,1645889021.958,8167
1760104,1645889021.96,8168
1760105,1645889021.962,8168
1760106,1645889021.964,8169
1760107,1645889021.966,8169
1760108,1645889021.968,8170
1760109,1645889021.97,8171
1760110,1645889021.972,8172
1760111,1645889021.974,8172
1760112,1645889021.976,8173
1760113,1645889021.978,8173
1760114,1645889021.98,8173
1760115,1645889021.982,8174
1760116,1645889021.984,8174
1760117,1645889021.986,8175
1760118,1645889021.988,8176
1760119,1645889021.99,8177
1760120,1645889021.992,8177
1760121,1645889021.994,8177
1760122,1645889021.996,8178
1760123,1645889021.998,8177
1760124,1645889022.0,8177
1760125,1645889022.002,8177
1760126,1645889022.004,8178
1760127,1645889022.006,8179
1760128,1645889022.008,8180
1760129,1645889022.01,8180
1760130,1645889022.012,8181
1760131,1645889022.014,8181
1760132,1645889022.016,8182
1760133,1645889022.018,8182
1760134,1645889022.02,8183
1760135,1645889022.022,8183
1760136,1645889022.024,8184
1760137,1645889022.026,8184
1760138,1645889022.028,8184
1760139,1645889022.03,8184
1760140,1645889022.032,8184
1760141,1645889022.034,8185
1760142,1645889022.036,8185
1760143,1645889022.038,8185
1760144,1645889022.04,8186
1760145,1645889022.042,8186
1760146,1645889022.044,8187
1760147,1645889022.046,8188
1760148,1645889022.048,8188
1760149,1645889022.05,8188
1760150,1645889022.052,8189
1760151,1645889022.054,8190
1760152,1645889022.056,8191
1760153,1645889022.058,8192
1760154,1645889022.06,8193
1760155,1645889022.062,8194
1760156,1645889022.064,8195
1760157,1645889022.066,8197
1760158,1645889022.068,8198
1760159,1645889022.07,8200
1760160,1645889022.072,8202
1760161,1645889022.074,8204
1760162,1645889022.076,8205
1760163,1645889022.078,8207
1760164,1645889022.08,8208
1760165,1645889022.082,8210
1760166,1645889022.084,8211
1760167,1645889022.086,8213
1760168,1645889022.088,8214
1760169,1645889022.09,8216
1760170,1645889022.092,8216
1760171,1645889022.094,8216
1760172,1645889022.096,8216
1760173,1645889022.098,8217
1760174,1645889022.1,8218
1760175,1645889022.102,8218
1760176,1645889022.104,8219
1760177,1645889022.106,8219
1760178,1645889022.108,8219
1760179,1645889022.11,8219
1760180,1645889022.112,8220
1760181,1645889022.114,8220
1760182,1645889022.116,8220
1760183,1645889022.118,8220
1760184,1645889022.12,8220
1760185,1645889022.122,8220
1760186,1645889022.124,8220
1760187,1645889022.126,8220
1760188,1645889022.128,8220
1760189,1645889022.13,8219
1760190,1645889022.132,8219
1760191,1645889022.134,8219
1760192,1645889022.136,8219
1760193,1645889022.138,8219
1760194,1645889022.14,8218
1760195,1645889022.142,8218
1760196,1645889022.144,8217
1760197,1645889022.146,8216
1760198,1645889022.148,8215
1760199,1645889022.15,8213
1760200,1645889022.152,8212
1760201,1645889022.154,8211
1760202,1645889022.156,8210
1760203,1645889022.158,8210
1760204,1645889022.16,8210
1760205,1645889022.162,8210
1760206,1645889022.164,8211
1760207,1645889022.166,8213
1760208,1645889022.168,8215
1760209,1645889022.17,8217
1760210,1645889022.172,8219
1760211,1645889022.174,8220
1760212,1645889022.176,8220
1760213,1645889022.178,8220
1760214,1645889022.18,8219
1760215,1645889022.182,8218
1760216,1645889022.184,8217
1760217,1645889022.186,8217
1760218,1645889022.188,8217
1760219,1645889022.19,8218
1760220,1645889022.192,8219
1760221,1645889022.194,8221
1760222,1645889022.196,8223
1760223,1645889022.198,8225
1760224,1645889022.2,8226
1760225,1645889022.202,8225
1760226,1645889022.204,8222
1760227,1645889022.206,8219
1760228,1645889022.208,8215
1760229,1645889022.21,8212
1760230,1645889022.212,8208
1760231,1645889022.214,8204
1760232,1645889022.216,8199
1760233,1645889022.218,8195
1760234,1645889022.22,8191
1760235,1645889022.222,8187
1760236,1645889022.224,8183
1760237,1645889022.226,8180
1760238,1645889022.228,8177
1760239,1645889022.23,8176
1760240,1645889022.232,8176
1760241,1645889022.234,8175
1760242,1645889022.236,8175
1760243,1645889022.238,8174
1760244,1645889022.24,8173
1760245,1645889022.242,8172
1760246,1645889022.244,8171
1760247,1645889022.246,8171
1760248,1645889022.248,8170
1760249,1645889022.25,8169
1760250,1645889022.252,8169
1760251,1645889022.254,8168
1760252,1645889022.256,8167
1760253,1645889022.258,8166
1760254,1645889022.26,8166
1760255,1645889022.262,8165
1760256,1645889022.264,8165
1760257,1645889022.266,8164
1760258,1645889022.268,8163
1760259,1645889022.27,8163
1760260,1645889022.272,8163
1760261,1645889022.274,8162
1760262,1645889022.276,8162
1760263,1645889022.278,8161
1760264,1645889022.28,8161
1760265,1645889022.282,8161
1760266,1645889022.284,8161
1760267,1645889022.286,8160
1760268,1645889022.288,8160
1760269,1645889022.29,8160
1760270,1645889022.292,8160
1760271,1645889022.294,8160
1760272,1645889022.296,8160
1760273,1645889022.298,8159
1760274,1645889022.3,8159
1760275,1645889022.302,8159
1760276,1645889022.304,8158
1760277,1645889022.306,8156
1760278,1645889022.308,8153
1760279,1645889022.31,8150
1760280,1645889022.312,8149
1760281,1645889022.314,8152
1760282,1645889022.316,8160
1760283,1645889022.318,8173
1760284,1645889022.32,8191
1760285,1645889022.322,8212
1760286,1645889022.324,8234
1760287,1645889022.326,8256
1760288,1645889022.328,8276
1760289,1645889022.33,8301
1760290,1645889022.332,8332
1760291,1645889022.334,8361
1760292,1645889022.336,8375
1760293,1645889022.338,8364
1760294,1645889022.34,8324
1760295,1645889022.342,8263
1760296,1645889022.344,8195
1760297,1645889022.346,8135
1760298,1645889022.348,8094
1760299,1645889022.35,8073
1760300,1645889022.352,8068
1760301,1645889022.354,8073
1760302,1645889022.356,8083
1760303,1645889022.358,8093
1760304,1645889022.36,8104
1760305,1645889022.362,8115
1760306,1645889022.364,8128
1760307,1645889022.366,8138
1760308,1645889022.368,8145
1760309,1645889022.37,8149
1760310,1645889022.372,8150
1760311,1645889022.374,8150
1760312,1645889022.376,8150
1760313,1645889022.378,8151
1760314,1645889022.38,8151
1760315,1645889022.382,8152
1760316,1645889022.384,8153
1760317,1645889022.386,8153
1760318,1645889022.388,8154
1760319,1645889022.39,8155
1760320,1645889022.392,8156
1760321,1645889022.394,8157
1760322,1645889022.396,8157
1760323,1645889022.398,8158
1760324,1645889022.4,8159
1760325,1645889022.402,8160
1760326,1645889022.404,8161
1760327,1645889022.406,8162
1760328,1645889022.408,8162
1760329,1645889022.41,8163
1760330,1645889022.412,8163
1760331,1645889022.414,8163
1760332,1645889022.416,8164
1760333,1645889022.418,8164
1760334,1645889022.42,8165
1760335,1645889022.422,8165
1760336,1645889022.424,8166
1760337,1645889022.426,8167
1760338,1645889022.428,8167
1760339,1645889022.43,8168
1760340,1645889022.432,8168
1760341,1645889022.434,8169
1760342,1645889022.436,8169
1760343,1645889022.438,8169
1760344,1645889022.44,8169
1760345,1645889022.442,8169
1760346,1645889022.444,8169
1760347,1645889022.446,8169
1760348,1645889022.448,8169
1760349,1645889022.45,8169
1760350,1645889022.452,8170
1760351,1645889022.454,8170
1760352,1645889022.456,8170
1760353,1645889022.458,8170
1760354,1645889022.46,8170
1760355,1645889022.462,8171
1760356,1645889022.464,8171
1760357,1645889022.466,8172
1760358,1645889022.468,8173
1760359,1645889022.47,8173
1760360,1645889022.472,8174
1760361,1645889022.474,8175
1760362,1645889022.476,8176
1760363,1645889022.478,8177
1760364,1645889022.48,8177
1760365,1645889022.482,8178
1760366,1645889022.484,8180
1760367,1645889022.486,8181
1760368,1645889022.488,8182
1760369,1645889022.49,8183
1760370,1645889022.492,8184
1760371,1645889022.494,8185
1760372,1645889022.496,8186
1760373,1645889022.498,8187
1760374,1645889022.5,8189
1760375,1645889022.502,8191
1760376,1645889022.504,8192
1760377,1645889022.506,8194
1760378,1645889022.508,8195
1760379,1645889022.51,8197
1760380,1645889022.512,8198
1760381,1645889022.514,8199
1760382,1645889022.516,8200
1760383,1645889022.518,8200
1760384,1645889022.52,8202
1760385,1645889022.522,8202
1760386,1645889022.524,8203
1760387,1645889022.526,8203
1760388,1645889022.528,8204
1760389,1645889022.53,8203
1760390,1645889022.532,8203
1760391,1645889022.534,8203
1760392,1645889022.536,8203
1760393,1645889022.538,8204
1760394,1645889022.54,8204
1760395,1645889022.542,8204
1760396,1645889022.544,8204
1760397,1645889022.546,8204
1760398,1645889022.548,8204
1760399,1645889022.55,8204
1760400,1645889022.552,8204
1760401,1645889022.554,8203
1760402,1645889022.556,8203
1760403,1645889022.558,8202
1760404,1645889022.56,8202
1760405,1645889022.562,8201
1760406,1645889022.564,8201
1760407,1645889022.566,8200
1760408,1645889022.568,8199
1760409,1645889022.57,8199
1760410,1645889022.572,8198
1760411,1645889022.574,8197
1760412,1645889022.576,8196
1760413,1645889022.578,8196
1760414,1645889022.58,8195
1760415,1645889022.582,8195
1760416,1645889022.584,8195
1760417,1645889022.586,8195
1760418,1645889022.588,8196
1760419,1645889022.59,8199
1760420,1645889022.592,8201
1760421,1645889022.594,8204
1760422,1645889022.596,8206
1760423,1645889022.598,8207
1760424,1645889022.6,8208
1760425,1645889022.602,8208
1760426,1645889022.604,8208
1760427,1645889022.606,8208
1760428,1645889022.608,8208
1760429,1645889022.61,8209
1760430,1645889022.612,8209
1760431,1645889022.614,8211
1760432,1645889022.616,8213
1760433,1645889022.618,8215
1760434,1645889022.62,8217
1760435,1645889022.622,8219
1760436,1645889022.624,8220
1760437,1645889022.626,8220
1760438,1645889022.628,8219
1760439,1645889022.63,8216
1760440,1645889022.632,8213
1760441,1645889022.634,8209
1760442,1645889022.636,8206
1760443,1645889022.638,8202
1760444,1645889022.64,8199
1760445,1645889022.642,8195
1760446,1645889022.644,8192
1760447,1645889022.646,8189
1760448,1645889022.648,8185
1760449,1645889022.65,8182
1760450,1645889022.652,8179
1760451,1645889022.654,8177
1760452,1645889022.656,8177
1760453,1645889022.658,8177
1760454,1645889022.66,8177
1760455,1645889022.662,8177
1760456,1645889022.664,8177
1760457,1645889022.666,8177
1760458,1645889022.668,8177
1760459,1645889022.67,8176
1760460,1645889022.672,8176
1760461,1645889022.674,8175
1760462,1645889022.676,8175
1760463,1645889022.678,8174
1760464,1645889022.68,8174
1760465,1645889022.682,8174
1760466,1645889022.684,8174
1760467,1645889022.686,8174
1760468,1645889022.688,8174
1760469,1645889022.69,8174
1760470,1645889022.692,8173
1760471,1645889022.694,8173
1760472,1645889022.696,8173
1760473,1645889022.698,8173
1760474,1645889022.7,8173
1760475,1645889022.702,8173
1760476,1645889022.704,8173
1760477,1645889022.706,8174
1760478,1645889022.708,8174
1760479,1645889022.71,8174
1760480,1645889022.712,8174
1760481,1645889022.714,8174
1760482,1645889022.716,8174
1760483,1645889022.718,8174
1760484,1645889022.72,8174
1760485,1645889022.722,8174
1760486,1645889022.724,8174
1760487,1645889022.726,8174
1760488,1645889022.728,8174
1760489,1645889022.73,8174
1760490,1645889022.732,8171
1760491,1645889022.734,8168
1760492,1645889022.736,8166
1760493,1645889022.738,8167
1760494,1645889022.74,8173
1760495,1645889022.742,8185
1760496,1645889022.744,8203
1760497,1645889022.746,8225
1760498,1645889022.748,8249
1760499,1645889022.75,8272
1760500,1645889022.752,8292
1760501,1645889022.754,8312
1760502,1645889022.756,8339
1760503,1645889022.758,8370
1760504,1645889022.76,8393
1760505,1645889022.762,8393
1760506,1645889022.764,8363
1760507,1645889022.766,8305
1760508,1645889022.768,8235
1760509,1645889022.77,8170
1760510,1645889022.772,8122
1760511,1645889022.774,8095
1760512,1645889022.776,8087
1760513,1645889022.778,8090
1760514,1645889022.78,8099
1760515,1645889022.782,8110
1760516,1645889022.784,8121
1760517,1645889022.786,8134
1760518,1645889022.788,8147
1760519,1645889022.79,8159
1760520,1645889022.792,8166
1760521,1645889022.794,8169
1760522,1645889022.796,8170
1760523,1645889022.798,8170
1760524,1645889022.8,8169
1760525,1645889022.802,8169
1760526,1645889022.804,8169
1760527,1645889022.806,8169
1760528,1645889022.808,8169
1760529,1645889022.81,8170
1760530,1645889022.812,8170
1760531,1645889022.814,8170
1760532,1645889022.816,8171
1760533,1645889022.818,8172
1760534,1645889022.82,8172
1760535,1645889022.822,8172
1760536,1645889022.824,8172
1760537,1645889022.826,8172
1760538,1645889022.828,8172
1760539,1645889022.83,8173
1760540,1645889022.832,8173
1760541,1645889022.834,8174
1760542,1645889022.836,8174
1760543,1645889022.838,8174
1760544,1645889022.84,8175
1760545,1645889022.842,8175
1760546,1645889022.844,8175
1760547,1645889022.846,8175
1760548,1645889022.848,8176
1760549,1645889022.85,8177
1760550,1645889022.852,8177
1760551,1645889022.854,8178
1760552,1645889022.856,8178
1760553,1645889022.858,8178
1760554,1645889022.86,8178
1760555,1645889022.862,8178
1760556,1645889022.864,8178
1760557,1645889022.866,8178
1760558,1645889022.868,8179
1760559,1645889022.87,8179
1760560,1645889022.872,8180
1760561,1645889022.874,8180
1760562,1645889022.876,8181
1760563,1645889022.878,8182
1760564,1645889022.88,8182
1760565,1645889022.882,8182
1760566,1645889022.884,8182
1760567,1645889022.886,8182
1760568,1645889022.888,8182
1760569,1645889022.89,8182
1760570,1645889022.892,8183
1760571,1645889022.894,8183
1760572,1645889022.896,8184
1760573,1645889022.898,8185
1760574,1645889022.9,8185
1760575,1645889022.902,8186
1760576,1645889022.904,8187
1760577,1645889022.906,8187
1760578,1645889022.908,8188
1760579,1645889022.91,8188
1760580,1645889022.912,8189
1760581,1645889022.914,8191
1760582,1645889022.916,8192
1760583,1645889022.918,8194
1760584,1645889022.92,8195
1760585,1645889022.922,8196
1760586,1645889022.924,8198
1760587,1645889022.926,8199
1760588,1645889022.928,8200
1760589,1645889022.93,8201
1760590,1645889022.932,8202
1760591,1645889022.934,8204
1760592,1645889022.936,8205
1760593,1645889022.938,8206
1760594,1645889022.94,8208
1760595,1645889022.942,8209
1760596,1645889022.944,8210
1760597,1645889022.946,8210
1760598,1645889022.948,8211
1760599,1645889022.95,8211
1760600,1645889022.952,8212
1760601,1645889022.954,8213
1760602,1645889022.956,8213
1760603,1645889022.958,8213
1760604,1645889022.96,8213
1760605,1645889022.962,8213
1760606,1645889022.964,8213
1760607,1645889022.966,8213
1760608,1645889022.968,8214
1760609,1645889022.97,8214
1760610,1645889022.972,8214
1760611,1645889022.974,8214
1760612,1645889022.976,8214
1760613,1645889022.978,8214
1760614,1645889022.98,8213
1760615,1645889022.982,8212
1760616,1645889022.984,8211
1760617,1645889022.986,8210
1760618,1645889022.988,8210
1760619,1645889022.99,8209
1760620,1645889022.992,8208
1760621,1645889022.994,8208
1760622,1645889022.996,8207
1760623,1645889022.998,8206
1760624,1645889023.0,8205
1760625,1645889023.002,8205
1760626,1645889023.004,8204
1760627,1645889023.006,8204
1760628,1645889023.008,8204
1760629,1645889023.01,8204
1760630,1645889023.012,8205
1760631,1645889023.014,8206
1760632,1645889023.016,8208
1760633,1645889023.018,8211
1760634,1645889023.02,8213
1760635,1645889023.022,8215
1760636,1645889023.024,8217
1760637,1645889023.026,8218
1760638,1645889023.028,8218
1760639,1645889023.03,8218
1760640,1645889023.032,8218
1760641,1645889023.034,8218
1760642,1645889023.036,8218
1760643,1645889023.038,8219
1760644,1645889023.04,8220
1760645,1645889023.042,8222
1760646,1645889023.044,8224
1760647,1645889023.046,8227
1760648,1645889023.048,8229
1760649,1645889023.05,8231
1760650,1645889023.052,8231
1760651,1645889023.054,8230
1760652,1645889023.056,8227
1760653,1645889023.058,8224
1760654,1645889023.06,8221
1760655,1645889023.062,8218
1760656,1645889023.064,8214
1760657,1645889023.066,8211
1760658,1645889023.068,8207
1760659,1645889023.07,8204
1760660,1645889023.072,8200
1760661,1645889023.074,8196
1760662,1645889023.076,8193
1760663,1645889023.078,8191
1760664,1645889023.08,8190
1760665,1645889023.082,8190
1760666,1645889023.084,8190
1760667,1645889023.086,8190
1760668,1645889023.088,8190
1760669,1645889023.09,8189
1760670,1645889023.092,8189
1760671,1645889023.094,8188
1760672,1645889023.096,8188
1760673,1645889023.098,8188
1760674,1645889023.1,8187
1760675,1645889023.102,8187
1760676,1645889023.104,8187
1760677,1645889023.106,8186
1760678,1645889023.108,8186
1760679,1645889023.11,8185
1760680,1645889023.112,8185
1760681,1645889023.114,8184
1760682,1645889023.116,8184
1760683,1645889023.118,8183
1760684,1645889023.12,8183
1760685,1645889023.122,8182
1760686,1645889023.124,8181
1760687,1645889023.126,8181
1760688,1645889023.128,8181
1760689,1645889023.13,8180
1760690,1645889023.132,8180
1760691,1645889023.134,8180
1760692,1645889023.136,8179
1760693,1645889023.138,8179
1760694,1645889023.14,8180
1760695,1645889023.142,8180
1760696,1645889023.144,8180
1760697,1645889023.146,8180
1760698,1645889023.148,8180
1760699,1645889023.15,8180
1760700,1645889023.152,8180
1760701,1645889023.154,8180
1760702,1645889023.156,8178
1760703,1645889023.158,8175
1760704,1645889023.16,8172
1760705,1645889023.162,8169
1760706,1645889023.164,8170
1760707,1645889023.166,8175
1760708,1645889023.168,8187
1760709,1645889023.17,8203
1760710,1645889023.172,8224
1760711,1645889023.174,8248
1760712,1645889023.176,8270
1760713,1645889023.178,8291
1760714,1645889023.18,8314
1760715,1645889023.182,8343
1760716,1645889023.184,8374
1760717,1645889023.186,8395
1760718,1645889023.188,8392
1760719,1645889023.19,8359
1760720,1645889023.192,8301
1760721,1645889023.194,8231
1760722,1645889023.196,8168
1760723,1645889023.198,8121
1760724,1645889023.2,8094
1760725,1645889023.202,8085
1760726,1645889023.204,8088
1760727,1645889023.206,8097
1760728,1645889023.208,8107
1760729,1645889023.21,8117
1760730,1645889023.212,8129
1760731,1645889023.214,8142
1760732,1645889023.216,8154
1760733,1645889023.218,8162
1760734,1645889023.22,8167
1760735,1645889023.222,8168
1760736,1645889023.224,8168
1760737,1645889023.226,8168
1760738,1645889023.228,8167
1760739,1645889023.23,8167
1760740,1645889023.232,8168
1760741,1645889023.234,8168
1760742,1645889023.236,8168
1760743,1645889023.238,8169
1760744,1645889023.24,8170
1760745,1645889023.242,8170
1760746,1645889023.244,8171
1760747,1645889023.246,8171
1760748,1645889023.248,8172
1760749,1645889023.25,8172
1760750,1645889023.252,8173
1760751,1645889023.254,8173
1760752,1645889023.256,8174
1760753,1645889023.258,8174
1760754,1645889023.26,8174
1760755,1645889023.262,8174
1760756,1645889023.264,8175
1760757,1645889023.266,8176
1760758,1645889023.268,8177
1760759,1645889023.27,8177
1760760,1645889023.272,8177
1760761,1645889023.274,8176
1760762,1645889023.276,8176
1760763,1645889023.278,8176
1760764,1645889023.28,8177
1760765,1645889023.282,8178
1760766,1645889023.284,8178
1760767,1645889023.286,8178
1760768,1645889023.288,8178
1760769,1645889023.29,8178
1760770,1645889023.292,8178
1760771,1645889023.294,8179
1760772,1645889023.296,8179
1760773,1645889023.298,8179
1760774,1645889023.3,8179
1760775,1645889023.302,8179
1760776,1645889023.304,8180
1760777,1645889023.306,8180
1760778,1645889023.308,8180
1760779,1645889023.31,8181
1760780,1645889023.312,8182
1760781,1645889023.314,8183
1760782,1645889023.316,8183
1760783,1645889023.318,8183
1760784,1645889023.32,8184
1760785,1645889023.322,8184
1760786,1645889023.324,8185
1760787,1645889023.326,8185
1760788,1645889023.328,8185
1760789,1645889023.33,8186
1760790,1645889023.332,8186
1760791,1645889023.334,8187
1760792,1645889023.336,8188
1760793,1645889023.338,8189
1760794,1645889023.34,8190
1760795,1645889023.342,8191
1760796,1645889023.344,8193
1760797,1645889023.346,8195
1760798,1645889023.348,8196
1760799,1645889023.35,8198
1760800,1645889023.352,8199
1760801,1645889023.354,8201
1760802,1645889023.356,8203
1760803,1645889023.358,8204
1760804,1645889023.36,8205
1760805,1645889023.362,8206
1760806,1645889023.364,8208
1760807,1645889023.366,8209
1760808,1645889023.368,8210
1760809,1645889023.37,8210
1760810,1645889023.372,8210
1760811,1645889023.374,8210
1760812,1645889023.376,8211
1760813,1645889023.378,8211
1760814,1645889023.38,8211
1760815,1645889023.382,8212
1760816,1645889023.384,8212
1760817,1645889023.386,8211
1760818,1645889023.388,8211
1760819,1645889023.39,8211
1760820,1645889023.392,8211
1760821,1645889023.394,8211
1760822,1645889023.396,8211
1760823,1645889023.398,8211
1760824,1645889023.4,8211
1760825,1645889023.402,8210
1760826,1645889023.404,8209
1760827,1645889023.406,8209
1760828,1645889023.408,8209
1760829,1645889023.41,8208
1760830,1645889023.412,8208
1760831,1645889023.414,8207
1760832,1645889023.416,8206
1760833,1645889023.418,8206
1760834,1645889023.42,8205
1760835,1645889023.422,8204
1760836,1645889023.424,8202
1760837,1645889023.426,8201
1760838,1645889023.428,8200
1760839,1645889023.43,8200
1760840,1645889023.432,8199
1760841,1645889023.434,8199
1760842,1645889023.436,8199
1760843,1645889023.438,8200
1760844,1645889023.44,8202
1760845,1645889023.442,8204
1760846,1645889023.444,8207
1760847,1645889023.446,8210
1760848,1645889023.448,8212
1760849,1645889023.45,8213
1760850,1645889023.452,8213
1760851,1645889023.454,8212
1760852,1645889023.456,8212
1760853,1645889023.458,8212
1760854,1645889023.46,8213
1760855,1645889023.462,8213
1760856,1645889023.464,8214
1760857,1645889023.466,8215
1760858,1645889023.468,8218
1760859,1645889023.47,8220
1760860,1645889023.472,8222
1760861,1645889023.474,8224
1760862,1645889023.476,8225
1760863,1645889023.478,8224
1760864,1645889023.48,8222
1760865,1645889023.482,8219
1760866,1645889023.484,8215
1760867,1645889023.486,8212
1760868,1645889023.488,8209
1760869,1645889023.49,8205
1760870,1645889023.492,8201
1760871,1645889023.494,8197
1760872,1645889023.496,8193
1760873,1645889023.498,8189
1760874,1645889023.5,8186
1760875,1645889023.502,8183
1760876,1645889023.504,8181
1760877,1645889023.506,8180
1760878,1645889023.508,8180
1760879,1645889023.51,8180
1760880,1645889023.512,8181
1760881,1645889023.514,8180
1760882,1645889023.516,8180
1760883,1645889023.518,8179
1760884,1645889023.52,8179
1760885,1645889023.522,8178
1760886,1645889023.524,8177
1760887,1645889023.526,8177
1760888,1645889023.528,8176
1760889,1645889023.53,8176
1760890,1645889023.532,8176
1760891,1645889023.534,8176
1760892,1645889023.536,8176
1760893,1645889023.538,8176
1760894,1645889023.54,8176
1760895,1645889023.542,8175
1760896,1645889023.544,8175
1760897,1645889023.546,8174
1760898,1645889023.548,8174
1760899,1645889023.55,8175
1760900,1645889023.552,8175
1760901,1645889023.554,8175
1760902,1645889023.556,8174
1760903,1645889023.558,8174
1760904,1645889023.56,8174
1760905,1645889023.562,8173
1760906,1645889023.564,8173
1760907,1645889023.566,8174
1760908,1645889023.568,8174
1760909,1645889023.57,8174
1760910,1645889023.572,8175
1760911,1645889023.574,8176
1760912,1645889023.576,8176
1760913,1645889023.578,8176
1760914,1645889023.58,8176
1760915,1645889023.582,8175
1760916,1645889023.584,8173
1760917,1645889023.586,8169
1760918,1645889023.588,8168
1760919,1645889023.59,8170
1760920,1645889023.592,8178
1760921,1645889023.594,8192
1760922,1645889023.596,8211
1760923,1645889023.598,8233
1760924,1645889023.6,8255
1760925,1645889023.602,8275
1760926,1645889023.604,8295
1760927,1645889023.606,8319
1760928,1645889023.608,8349
1760929,1645889023.61,8380
1760930,1645889023.612,8395
1760931,1645889023.614,8382
1760932,1645889023.616,8339
1760933,1645889023.618,8274
1760934,1645889023.62,8206
1760935,1645889023.622,8150
1760936,1645889023.624,8113
1760937,1645889023.626,8094
1760938,1645889023.628,8090
1760939,1645889023.63,8095
1760940,1645889023.632,8104
1760941,1645889023.634,8115
1760942,1645889023.636,8126
1760943,1645889023.638,8139
1760944,1645889023.64,8152
1760945,1645889023.642,8162
1760946,1645889023.644,8169
1760947,1645889023.646,8172
1760948,1645889023.648,8173
1760949,1645889023.65,8173
1760950,1645889023.652,8173
1760951,1645889023.654,8173
1760952,1645889023.656,8173
1760953,1645889023.658,8173
1760954,1645889023.66,8174
1760955,1645889023.662,8174
1760956,1645889023.664,8175
1760957,1645889023.666,8175
1760958,1645889023.668,8176
1760959,1645889023.67,8176
1760960,1645889023.672,8176
1760961,1645889023.674,8176
1760962,1645889023.676,8177
1760963,1645889023.678,8177
1760964,1645889023.68,8178
1760965,1645889023.682,8179
1760966,1645889023.684,8180
1760967,1645889023.686,8180
1760968,1645889023.688,8181
1760969,1645889023.69,8181
1760970,1645889023.692,8181
1760971,1645889023.694,8181
1760972,1645889023.696,8181
1760973,1645889023.698,8181
1760974,1645889023.7,8182
1760975,1645889023.702,8182
1760976,1645889023.704,8182
1760977,1645889023.706,8183
1760978,1645889023.708,8183
1760979,1645889023.71,8184
1760980,1645889023.712,8184
1760981,1645889023.714,8185
1760982,1645889023.716,8185
1760983,1645889023.718,8186
1760984,1645889023.72,8186
1760985,1645889023.722,8186
1760986,1645889023.724,8186
1760987,1645889023.726,8186
1760988,1645889023.728,8186
1760989,1645889023.73,8186
1760990,1645889023.732,8186
1760991,1645889023.734,8186
1760992,1645889023.736,8186
1760993,1645889023.738,8187
1760994,1645889023.74,8188
1760995,1645889023.742,8188
1760996,1645889023.744,8189
1760997,1645889023.746,8190
1760998,1645889023.748,8191
1760999,1645889023.75,8191
1761000,1645889023.752,8192
1761001,1645889023.754,8192
1761002,1645889023.756,8192
1761003,1645889023.758,8192
1761004,1645889023.76,8192
1761005,1645889023.762,8193
1761006,1645889023.764,8194
1761007,1645889023.766,8195
1761008,1645889023.768,8197
1761009,1645889023.77,8198
1761010,1645889023.772,8200
1761011,1645889023.774,8201
1761012,1645889023.776,8203
1761013,1645889023.778,8204
1761014,1645889023.78,8206
1761015,1645889023.782,8207
1761016,1645889023.784,8208
1761017,1645889023.786,8210
1761018,1645889023.788,8211
1761019,1645889023.79,8212
1761020,1645889023.792,8213
1761021,1645889023.794,8214
1761022,1645889023.796,8215
1761023,1645889023.798,8215
1761024,1645889023.8,8216
1761025,1645889023.802,8216
1761026,1645889023.804,8216
1761027,1645889023.806,8216
1761028,1645889023.808,8216
1761029,1645889023.81,8216
1761030,1645889023.812,8217
1761031,1645889023.814,8218
1761032,1645889023.816,8218
1761033,1645889023.818,8218
1761034,1645889023.82,8217
1761035,1645889023.822,8217
1761036,1645889023.824,8216
1761037,1645889023.826,8216
1761038,1645889023.828,8215
1761039,1645889023.83,8215
1761040,1645889023.832,8214
1761041,1645889023.834,8213
1761042,1645889023.836,8213
1761043,1645889023.838,8213
1761044,1645889023.84,8212
1761045,1645889023.842,8211
1761046,1645889023.844,8211
1761047,1645889023.846,8209
1761048,1645889023.848,8208
1761049,1645889023.85,8208
1761050,1645889023.852,8207
1761051,1645889023.854,8206
1761052,1645889023.856,8206
1761053,1645889023.858,8205
1761054,1645889023.86,8204
1761055,1645889023.862,8205
1761056,1645889023.864,8206
1761057,1645889023.866,8208
1761058,1645889023.868,8210
1761059,1645889023.87,8212
1761060,1645889023.872,8214
1761061,1645889023.874,8215
1761062,1645889023.876,8216
1761063,1645889023.878,8215
1761064,1645889023.88,8215
1761065,1645889023.882,8214
1761066,1645889023.884,8213
1761067,1645889023.886,8212
1761068,1645889023.888,8212
1761069,1645889023.89,8213
1761070,1645889023.892,8214
1761071,1645889023.894,8217
1761072,1645889023.896,8219
1761073,1645889023.898,8221
1761074,1645889023.9,8222
1761075,1645889023.902,8221
1761076,1645889023.904,8220
1761077,1645889023.906,8217
1761078,1645889023.908,8214
1761079,1645889023.91,8210
1761080,1645889023.912,8206
1761081,1645889023.914,8202
1761082,1645889023.916,8198
1761083,1645889023.918,8195
1761084,1645889023.92,8191
1761085,1645889023.922,8187
1761086,1645889023.924,8184
1761087,1645889023.926,8181
1761088,1645889023.928,8178
1761089,1645889023.93,8177
1761090,1645889023.932,8175
1761091,1645889023.934,8175
1761092,1645889023.936,8175
1761093,1645889023.938,8175
1761094,1645889023.94,8175
1761095,1645889023.942,8174
1761096,1645889023.944,8174
1761097,1645889023.946,8173
1761098,1645889023.948,8173
1761099,1645889023.95,8172
1761100,1645889023.952,8172
1761101,1645889023.954,8172
1761102,1645889023.956,8171
1761103,1645889023.958,8170
1761104,1645889023.96,8170
1761105,1645889023.962,8169
1761106,1645889023.964,8169
1761107,1645889023.966,8168
1761108,1645889023.968,8168
1761109,1645889023.97,8168
1761110,1645889023.972,8168
1761111,1645889023.974,8168
1761112,1645889023.976,8168
1761113,1645889023.978,8168
1761114,1645889023.98,8168
1761115,1645889023.982,8168
1761116,1645889023.984,8168
1761117,1645889023.986,8168
1761118,1645889023.988,8168
1761119,1645889023.99,8169
1761120,1645889023.992,8169
1761121,1645889023.994,8169
1761122,1645889023.996,8169
1761123,1645889023.998,8170
1761124,1645889024.0,8171
1761125,1645889024.002,8171
1761126,1645889024.004,8171
1761127,1645889024.006,8170
1761128,1645889024.008,8167
1761129,1645889024.01,8164
1761130,1645889024.012,8162
1761131,1645889024.014,8162
1761132,1645889024.016,8166
1761133,1645889024.018,8176
1761134,1645889024.02,8192
1761135,1645889024.022,8212
1761136,1645889024.024,8234
1761137,1645889024.026,8257
1761138,1645889024.028,8278
1761139,1645889024.03,8300
1761140,1645889024.032,8326
1761141,1645889024.034,8356
1761142,1645889024.036,8380
1761143,1645889024.038,8386
1761144,1645889024.04,8362
1761145,1645889024.042,8311
1761146,1645889024.044,8244
1761147,1645889024.046,8177
1761148,1645889024.048,8125
1761149,1645889024.05,8094
1761150,1645889024.052,8081
1761151,1645889024.054,8081
1761152,1645889024.056,8089
1761153,1645889024.058,8099
1761154,1645889024.06,8109
1761155,1645889024.062,8120
1761156,1645889024.064,8133
1761157,1645889024.066,8145
1761158,1645889024.068,8155
1761159,1645889024.07,8160
1761160,1645889024.072,8162
1761161,1645889024.074,8163
1761162,1645889024.076,8162
1761163,1645889024.078,8162
1761164,1645889024.08,8161
1761165,1645889024.082,8161
1761166,1645889024.084,8161
1761167,1645889024.086,8162
1761168,1645889024.088,8162
1761169,1645889024.09,8162
1761170,1645889024.092,8162
1761171,1645889024.094,8162
1761172,1645889024.096,8162
1761173,1645889024.098,8163
1761174,1645889024.1,8163
1761175,1645889024.102,8164
1761176,1645889024.104,8165
1761177,1645889024.106,8165
1761178,1645889024.108,8166
1761179,1645889024.11,8166
1761180,1645889024.112,8166
1761181,1645889024.114,8167
1761182,1645889024.116,8167
1761183,1645889024.118,8168
1761184,1645889024.12,8168
1761185,1645889024.122,8168
1761186,1645889024.124,8168
1761187,1645889024.126,8168
1761188,1645889024.128,8168
1761189,1645889024.13,8168
1761190,1645889024.132,8169
1761191,1645889024.134,8169
1761192,1645889024.136,8170
1761193,1645889024.138,8170
1761194,1645889024.14,8170
1761195,1645889024.142,8170
1761196,1645889024.144,8171
1761197,1645889024.146,8171
1761198,1645889024.148,8171
1761199,1645889024.15,8172
1761200,1645889024.152,8172
1761201,1645889024.154,8173
1761202,1645889024.156,8174
1761203,1645889024.158,8174
1761204,1645889024.16,8175
1761205,1645889024.162,8175
1761206,1645889024.164,8175
1761207,1645889024.166,8175
1761208,1645889024.168,8176
1761209,1645889024.17,8176
1761210,1645889024.172,8176
1761211,1645889024.174,8177
1761212,1645889024.176,8177
1761213,1645889024.178,8178
1761214,1645889024.18,8178
1761215,1645889024.182,8179
1761216,1645889024.184,8180
1761217,1645889024.186,8181
1761218,1645889024.188,8182
1761219,1645889024.19,8183
1761220,1645889024.192,8185
1761221,1645889024.194,8186
1761222,1645889024.196,8188
1761223,1645889024.198,8189
1761224,1645889024.2,8191
1761225,1645889024.202,8193
1761226,1645889024.204,8194
1761227,1645889024.206,8196
1761228,1645889024.208,8198
1761229,1645889024.21,8200
1761230,1645889024.212,8201
1761231,1645889024.214,8203
1761232,1645889024.216,8204
1761233,1645889024.218,8205
1761234,1645889024.22,8206
1761235,1645889024.222,8206
1761236,1645889024.224,8205
1761237,1645889024.226,8206
1761238,1645889024.228,8206
1761239,1645889024.23,8207
1761240,1645889024.232,8208
1761241,1645889024.234,8208
1761242,1645889024.236,8208
1761243,1645889024.238,8208
1761244,1645889024.24,8207
1761245,1645889024.242,8207
1761246,1645889024.244,8207
1761247,1645889024.246,8207
1761248,1645889024.248,8206
1761249,1645889024.25,8206
1761250,1645889024.252,8206
1761251,1645889024.254,8205
1761252,1645889024.256,8205
1761253,1645889024.258,8204
1761254,1645889024.26,8204
1761255,1645889024.262,8203
1761256,1645889024.264,8203
1761257,1645889024.266,8202
1761258,1645889024.268,8201
1761259,1645889024.27,8200
1761260,1645889024.272,8199
1761261,1645889024.274,8198
1761262,1645889024.276,8197
1761263,1645889024.278,8197
1761264,1645889024.28,8196
1761265,1645889024.282,8195
1761266,1645889024.284,8195
1761267,1645889024.286,8195
1761268,1645889024.288,8196
1761269,1645889024.29,8198
1761270,1645889024.292,8200
1761271,1645889024.294,8203
1761272,1645889024.296,8205
1761273,1645889024.298,8206
1761274,1645889024.3,8207
1761275,1645889024.302,8208
1761276,1645889024.304,8208
1761277,1645889024.306,8207
1761278,1645889024.308,8206
1761279,1645889024.31,8206
1761280,1645889024.312,8205
1761281,1645889024.314,8206
1761282,1645889024.316,8207
1761283,1645889024.318,8210
1761284,1645889024.32,8212
1761285,1645889024.322,8215
1761286,1645889024.324,8217
1761287,1645889024.326,8217
1761288,1645889024.328,8217
1761289,1645889024.33,8214
1761290,1645889024.332,8211
1761291,1645889024.334,8208
1761292,1645889024.336,8204
1761293,1645889024.338,8201
1761294,1645889024.34,8197
1761295,1645889024.342,8193
1761296,1645889024.344,8189
1761297,1645889024.346,8186
1761298,1645889024.348,8183
1761299,1645889024.35,8179
1761300,1645889024.352,8176
1761301,1645889024.354,8175
1761302,1645889024.356,8174
1761303,1645889024.358,8173
1761304,1645889024.36,8173
1761305,1645889024.362,8173
1761306,1645889024.364,8173
1761307,1645889024.366,8173
1761308,1645889024.368,8172
1761309,1645889024.37,8171
1761310,1645889024.372,8171
1761311,1645889024.374,8170
1761312,1645889024.376,8170
1761313,1645889024.378,8171
1761314,1645889024.38,8171
1761315,1645889024.382,8171
1761316,1645889024.384,8170
1761317,1645889024.386,8170
1761318,1645889024.388,8170
1761319,1645889024.39,8169
1761320,1645889024.392,8168
1761321,1645889024.394,8168
1761322,1645889024.396,8168
1761323,1645889024.398,8168
1761324,1645889024.4,8168
1761325,1645889024.402,8167
1761326,1645889024.404,8167
1761327,1645889024.406,8166
1761328,1645889024.408,8166
1761329,1645889024.41,8167
1761330,1645889024.412,8167
1761331,1645889024.414,8167
1761332,1645889024.416,8167
1761333,1645889024.418,8167
1761334,1645889024.42,8167
1761335,1645889024.422,8168
1761336,1645889024.424,8168
1761337,1645889024.426,8168
1761338,1645889024.428,8168
1761339,1645889024.43,8168
1761340,1645889024.432,8166
1761341,1645889024.434,8163
1761342,1645889024.436,8160
1761343,1645889024.438,8158
1761344,1645889024.44,8160
1761345,1645889024.442,8168
1761346,1645889024.444,8182
1761347,1645889024.446,8200
1761348,1645889024.448,8220
1761349,1645889024.45,8242
1761350,1645889024.452,8263
1761351,1645889024.454,8284
1761352,1645889024.456,8307
1761353,1645889024.458,8337
1761354,1645889024.46,8369
1761355,1645889024.462,8387
1761356,1645889024.464,8379
1761357,1645889024.466,8341
1761358,1645889024.468,8284
1761359,1645889024.47,8219
1761360,1645889024.472,8159
1761361,1645889024.474,8114
1761362,1645889024.476,8089
1761363,1645889024.478,8081
1761364,1645889024.48,8083
1761365,1645889024.482,8092
1761366,1645889024.484,8103
1761367,1645889024.486,8114
1761368,1645889024.488,8127
1761369,1645889024.49,8140
1761370,1645889024.492,8151
1761371,1645889024.494,8158
1761372,1645889024.496,8162
1761373,1645889024.498,8164
1761374,1645889024.5,8164
1761375,1645889024.502,8164
1761376,1645889024.504,8164
1761377,1645889024.506,8164
1761378,1645889024.508,8164
1761379,1645889024.51,8165
1761380,1645889024.512,8165
1761381,1645889024.514,8166
1761382,1645889024.516,8167
1761383,1645889024.518,8168
1761384,1645889024.52,8169
1761385,1645889024.522,8169
1761386,1645889024.524,8170
1761387,1645889024.526,8170
1761388,1645889024.528,8170
1761389,1645889024.53,8170
1761390,1645889024.532,8171
1761391,1645889024.534,8172
1761392,1645889024.536,8173
1761393,1645889024.538,8173
1761394,1645889024.54,8173
1761395,1645889024.542,8173
1761396,1645889024.544,8174
1761397,1645889024.546,8175
1761398,1645889024.548,8176
1761399,1645889024.55,8177
1761400,1645889024.552,8177
1761401,1645889024.554,8178
1761402,1645889024.556,8178
1761403,1645889024.558,8179
1761404,1645889024.56,8179
1761405,1645889024.562,8180
1761406,1645889024.564,8180
1761407,1645889024.566,8180
1761408,1645889024.568,8180
1761409,1645889024.57,8180
1761410,1645889024.572,8180
1761411,1645889024.574,8181
1761412,1645889024.576,8182
1761413,1645889024.578,8183
1761414,1645889024.58,8183
1761415,1645889024.582,8183
1761416,1645889024.584,8183
1761417,1645889024.586,8183
1761418,1645889024.588,8183
1761419,1645889024.59,8183
1761420,1645889024.592,8182
1761421,1645889024.594,8183
1761422,1645889024.596,8183
1761423,1645889024.598,8184
1761424,1645889024.6,8185
1761425,1645889024.602,8185
1761426,1645889024.604,8185
1761427,1645889024.606,8186
1761428,1645889024.608,8187
1761429,1645889024.61,8188
1761430,1645889024.612,8189
1761431,1645889024.614,8190
1761432,1645889024.616,8191
1761433,1645889024.618,8192
1761434,1645889024.62,8194
1761435,1645889024.622,8195
1761436,1645889024.624,8196
1761437,1645889024.626,8198
1761438,1645889024.628,8199
1761439,1645889024.63,8201
1761440,1645889024.632,8202
1761441,1645889024.634,8204
1761442,1645889024.636,8206
1761443,1645889024.638,8207
1761444,1645889024.64,8208
1761445,1645889024.642,8209
1761446,1645889024.644,8210
1761447,1645889024.646,8211
1761448,1645889024.648,8211
1761449,1645889024.65,8212
1761450,1645889024.652,8211
1761451,1645889024.654,8211
1761452,1645889024.656,8211
1761453,1645889024.658,8212
1761454,1645889024.66,8212
1761455,1645889024.662,8212
1761456,1645889024.664,8213
1761457,1645889024.666,8213
1761458,1645889024.668,8212
1761459,1645889024.67,8211
1761460,1645889024.672,8211
1761461,1645889024.674,8210
1761462,1645889024.676,8209
1761463,1645889024.678,8208
1761464,1645889024.68,8208
1761465,1645889024.682,8207
1761466,1645889024.684,8207
1761467,1645889024.686,8206
1761468,1645889024.688,8205
1761469,1645889024.69,8204
1761470,1645889024.692,8204
1761471,1645889024.694,8203
1761472,1645889024.696,8202
1761473,1645889024.698,8201
1761474,1645889024.7,8201
1761475,1645889024.702,8200
1761476,1645889024.704,8199
1761477,1645889024.706,8198
1761478,1645889024.708,8197
1761479,1645889024.71,8196
1761480,1645889024.712,8196
1761481,1645889024.714,8197
1761482,1645889024.716,8199
1761483,1645889024.718,8201
1761484,1645889024.72,8203
1761485,1645889024.722,8206
1761486,1645889024.724,8207
1761487,1645889024.726,8208
1761488,1645889024.728,8208
1761489,1645889024.73,8208
1761490,1645889024.732,8208
1761491,1645889024.734,8208
1761492,1645889024.736,8208
1761493,1645889024.738,8208
1761494,1645889024.74,8209
1761495,1645889024.742,8211
1761496,1645889024.744,8214
1761497,1645889024.746,8216
1761498,1645889024.748,8218
1761499,1645889024.75,8219
1761500,1645889024.752,8220
1761501,1645889024.754,8219
1761502,1645889024.756,8216
1761503,1645889024.758,8213
1761504,1645889024.76,8210
1761505,1645889024.762,8207
1761506,1645889024.764,8203
1761507,1645889024.766,8199
1761508,1645889024.768,8195
1761509,1645889024.77,8191
1761510,1645889024.772,8188
1761511,1645889024.774,8184
1761512,1645889024.776,8181
1761513,1645889024.778,8179
1761514,1645889024.78,8177
1761515,1645889024.782,8176
1761516,1645889024.784,8176
1761517,1645889024.786,8176
1761518,1645889024.788,8175
1761519,1645889024.79,8175
1761520,1645889024.792,8175
1761521,1645889024.794,8175
1761522,1645889024.796,8175
1761523,1645889024.798,8175
1761524,1645889024.8,8175
1761525,1645889024.802,8175
1761526,1645889024.804,8174
1761527,1645889024.806,8174
1761528,1645889024.808,8174
1761529,1645889024.81,8174
1761530,1645889024.812,8174
1761531,1645889024.814,8175
1761532,1645889024.816,8174
1761533,1645889024.818,8174
1761534,1645889024.82,8173
1761535,1645889024.822,8173
1761536,1645889024.824,8173
1761537,1645889024.826,8172
1761538,1645889024.828,8172
1761539,1645889024.83,8173
1761540,1645889024.832,8173
1761541,1645889024.834,8173
1761542,1645889024.836,8173
1761543,1645889024.838,8174
1761544,1645889024.84,8174
1761545,1645889024.842,8173
1761546,1645889024.844,8174
1761547,1645889024.846,8175
1761548,1645889024.848,8175
1761549,1645889024.85,8176
1761550,1645889024.852,8176
1761551,1645889024.854,8176
1761552,1645889024.856,8175
1761553,1645889024.858,8172
1761554,1645889024.86,8169
1761555,1645889024.862,8167
1761556,1645889024.864,8166
1761557,1645889024.866,8170
1761558,1645889024.868,8180
1761559,1645889024.87,8197
1761560,1645889024.872,8218
1761561,1645889024.874,8241
1761562,1645889024.876,8264
1761563,1645889024.878,8284
1761564,1645889024.88,8305
1761565,1645889024.882,8329
1761566,1645889024.884,8360
1761567,1645889024.886,8387
1761568,1645889024.888,8395
1761569,1645889024.89,8375
1761570,1645889024.892,8325
1761571,1645889024.894,8258
1761572,1645889024.896,8189
1761573,1645889024.898,8135
1761574,1645889024.9,8102
1761575,1645889024.902,8088
1761576,1645889024.904,8088
1761577,1645889024.906,8096
1761578,1645889024.908,8106
1761579,1645889024.91,8117
1761580,1645889024.912,8129
1761581,1645889024.914,8143
1761582,1645889024.916,8156
1761583,1645889024.918,8164
1761584,1645889024.92,8168
1761585,1645889024.922,8169
1761586,1645889024.924,8169
1761587,1645889024.926,8169
1761588,1645889024.928,8169
1761589,1645889024.93,8169
1761590,1645889024.932,8169
1761591,1645889024.934,8169
1761592,1645889024.936,8169
1761593,1645889024.938,8169
1761594,1645889024.94,8170
1761595,1645889024.942,8170
1761596,1645889024.944,8171
1761597,1645889024.946,8171
1761598,1645889024.948,8171
1761599,1645889024.95,8172
1761600,1645889024.952,8172
1761601,1645889024.954,8171
1761602,1645889024.956,8172
1761603,1645889024.958,8172
1761604,1645889024.96,8173
1761605,1645889024.962,8173
1761606,1645889024.964,8173
1761607,1645889024.966,8173
1761608,1645889024.968,8173
1761609,1645889024.97,8173
1761610,1645889024.972,8173
1761611,1645889024.974,8174
1761612,1645889024.976,8175
1761613,1645889024.978,8176
1761614,1645889024.98,8177
1761615,1645889024.982,8177
1761616,1645889024.984,8178
1761617,1645889024.986,8178
1761618,1645889024.988,8178
1761619,1645889024.99,8178
1761620,1645889024.992,8178
1761621,1645889024.994,8178
1761622,1645889024.996,8179
1761623,1645889024.998,8180
1761624,1645889025.0,8181
1761625,1645889025.002,8181
1761626,1645889025.004,8182
1761627,1645889025.006,8182
1761628,1645889025.008,8183
1761629,1645889025.01,8184
1761630,1645889025.012,8184
1761631,1645889025.014,8184
1761632,1645889025.016,8184
1761633,1645889025.018,8184
1761634,1645889025.02,8184
1761635,1645889025.022,8184
1761636,1645889025.024,8185
1761637,1645889025.026,8185
1761638,1645889025.028,8186
1761639,1645889025.03,8187
1761640,1645889025.032,8188
1761641,1645889025.034,8189
1761642,1645889025.036,8190
1761643,1645889025.038,8190
1761644,1645889025.04,8191
1761645,1645889025.042,8192
1761646,1645889025.044,8193
1761647,1645889025.046,8194
1761648,1645889025.048,8196
1761649,1645889025.05,8197
1761650,1645889025.052,8199
1761651,1645889025.054,8200
1761652,1645889025.056,8201
1761653,1645889025.058,8203
1761654,1645889025.06,8204
1761655,1645889025.062,8205
1761656,1645889025.064,8207
1761657,1645889025.066,8208
1761658,1645889025.068,8209
1761659,1645889025.07,8210
1761660,1645889025.072,8211
1761661,1645889025.074,8211
1761662,1645889025.076,8211
1761663,1645889025.078,8211
1761664,1645889025.08,8212
1761665,1645889025.082,8212
1761666,1645889025.084,8212
1761667,1645889025.086,8213
1761668,1645889025.088,8214
1761669,1645889025.09,8214
1761670,1645889025.092,8214
1761671,1645889025.094,8213
1761672,1645889025.096,8213
1761673,1645889025.098,8213
1761674,1645889025.1,8213
1761675,1645889025.102,8213
1761676,1645889025.104,8212
1761677,1645889025.106,8212
1761678,1645889025.108,8211
1761679,1645889025.11,8210
1761680,1645889025.112,8209
1761681,1645889025.114,8209
1761682,1645889025.116,8209
1761683,1645889025.118,8208
1761684,1645889025.12,8208
1761685,1645889025.122,8207
1761686,1645889025.124,8206
1761687,1645889025.126,8205
1761688,1645889025.128,8204
1761689,1645889025.13,8203
1761690,1645889025.132,8202
1761691,1645889025.134,8201
1761692,1645889025.136,8200
1761693,1645889025.138,8201
1761694,1645889025.14,8202
1761695,1645889025.142,8204
1761696,1645889025.144,8207
1761697,1645889025.146,8210
1761698,1645889025.148,8212
1761699,1645889025.15,8214
1761700,1645889025.152,8215
1761701,1645889025.154,8215
1761702,1645889025.156,8214
1761703,1645889025.158,8213
1761704,1645889025.16,8212
1761705,1645889025.162,8213
1761706,1645889025.164,8213
1761707,1645889025.166,8214
1761708,1645889025.168,8216
1761709,1645889025.17,8219
1761710,1645889025.172,8221
1761711,1645889025.174,8223
1761712,1645889025.176,8225
1761713,1645889025.178,8226
1761714,1645889025.18,8225
1761715,1645889025.182,8223
1761716,1645889025.184,8220
1761717,1645889025.186,8217
1761718,1645889025.188,8213
1761719,1645889025.19,8210
1761720,1645889025.192,8206
1761721,1645889025.194,8202
1761722,1645889025.196,8198
1761723,1645889025.198,8195
1761724,1645889025.2,8191
1761725,1645889025.202,8188
1761726,1645889025.204,8186
1761727,1645889025.206,8184
1761728,1645889025.208,8184
1761729,1645889025.21,8184
1761730,1645889025.212,8184
1761731,1645889025.214,8184
1761732,1645889025.216,8185
1761733,1645889025.218,8185
1761734,1645889025.22,8185
1761735,1645889025.222,8185
1761736,1645889025.224,8185
1761737,1645889025.226,8184
1761738,1645889025.228,8183
1761739,1645889025.23,8183
1761740,1645889025.232,8182
1761741,1645889025.234,8182
1761742,1645889025.236,8182
1761743,1645889025.238,8182
1761744,1645889025.24,8182
1761745,1645889025.242,8182
1761746,1645889025.244,8181
1761747,1645889025.246,8181
1761748,1645889025.248,8181
1761749,1645889025.25,8181
1761750,1645889025.252,8181
1761751,1645889025.254,8181
1761752,1645889025.256,8181
1761753,1645889025.258,8181
1761754,1645889025.26,8181
1761755,1645889025.262,8181
1761756,1645889025.264,8181
1761757,1645889025.266,8181
1761758,1645889025.268,8182
1761759,1645889025.27,8182
1761760,1645889025.272,8182
1761761,1645889025.274,8182
1761762,1645889025.276,8182
1761763,1645889025.278,8183
1761764,1645889025.28,8183
1761765,1645889025.282,8182
1761766,1645889025.284,8180
1761767,1645889025.286,8176
1761768,1645889025.288,8173
1761769,1645889025.29,8173
1761770,1645889025.292,8176
1761771,1645889025.294,8185
1761772,1645889025.296,8199
1761773,1645889025.298,8218
1761774,1645889025.3,8240
1761775,1645889025.302,8263
1761776,1645889025.304,8285
1761777,1645889025.306,8306
1761778,1645889025.308,8333
1761779,1645889025.31,8364
1761780,1645889025.312,8390
1761781,1645889025.314,8396
1761782,1645889025.316,8375
1761783,1645889025.318,8328
1761784,1645889025.32,8263
1761785,1645889025.322,8196
1761786,1645889025.324,8141
1761787,1645889025.326,8106
1761788,1645889025.328,8091
1761789,1645889025.33,8089
1761790,1645889025.332,8096
1761791,1645889025.334,8106
1761792,1645889025.336,8116
1761793,1645889025.338,8127
1761794,1645889025.34,8139
1761795,1645889025.342,8152
1761796,1645889025.344,8161
1761797,1645889025.346,8167
1761798,1645889025.348,8169
1761799,1645889025.35,8170
1761800,1645889025.352,8171
1761801,1645889025.354,8170
1761802,1645889025.356,8170
1761803,1645889025.358,8170
1761804,1645889025.36,8170
1761805,1645889025.362,8171
1761806,1645889025.364,8171
1761807,1645889025.366,8172
1761808,1645889025.368,8173
1761809,1645889025.37,8174
1761810,1645889025.372,8175
1761811,1645889025.374,8176
1761812,1645889025.376,8177
1761813,1645889025.378,8178
1761814,1645889025.38,8178
1761815,1645889025.382,8179
1761816,1645889025.384,8180
1761817,1645889025.386,8180
1761818,1645889025.388,8181
1761819,1645889025.39,8182
1761820,1645889025.392,8183
1761821,1645889025.394,8184
1761822,1645889025.396,8184
1761823,1645889025.398,8184
1761824,1645889025.4,8184
1761825,1645889025.402,8184
1761826,1645889025.404,8184
1761827,1645889025.406,8184
1761828,1645889025.408,8184
1761829,1645889025.41,8184
1761830,1645889025.412,8184
1761831,1645889025.414,8184
1761832,1645889025.416,8183
1761833,1645889025.418,8183
1761834,1645889025.42,8183
1761835,1645889025.422,8182
1761836,1645889025.424,8182
1761837,1645889025.426,8181
1761838,1645889025.428,8180
1761839,1645889025.43,8179
1761840,1645889025.432,8178
1761841,1645889025.434,8177
1761842,1645889025.436,8177
1761843,1645889025.438,8177
1761844,1645889025.44,8177
1761845,1645889025.442,8177
1761846,1645889025.444,8177
1761847,1645889025.446,8178
1761848,1645889025.448,8179
1761849,1645889025.45,8180
1761850,1645889025.452,8180
1761851,1645889025.454,8180
1761852,1645889025.456,8180
1761853,1645889025.458,8181
1761854,1645889025.46,8182
1761855,1645889025.462,8182
1761856,1645889025.464,8183
1761857,1645889025.466,8184
1761858,1645889025.468,8185
1761859,1645889025.47,8187
1761860,1645889025.472,8188
1761861,1645889025.474,8190
1761862,1645889025.476,8191
1761863,1645889025.478,8193
1761864,1645889025.48,8194
1761865,1645889025.482,8196
1761866,1645889025.484,8197
1761867,1645889025.486,8198
1761868,1645889025.488,8199
1761869,1645889025.49,8200
1761870,1645889025.492,8201
1761871,1645889025.494,8202
1761872,1645889025.496,8203
1761873,1645889025.498,8203
1761874,1645889025.5,8204
1761875,1645889025.502,8204
1761876,1645889025.504,8205
1761877,1645889025.506,8205
1761878,1645889025.508,8205
1761879,1645889025.51,8205
1761880,1645889025.512,8206
1761881,1645889025.514,8206
1761882,1645889025.516,8207
1761883,1645889025.518,8207
1761884,1645889025.52,8207
1761885,1645889025.522,8207
1761886,1645889025.524,8207
1761887,1645889025.526,8207
1761888,1645889025.528,8207
1761889,1645889025.53,8206
1761890,1645889025.532,8206
1761891,1645889025.534,8205
1761892,1645889025.536,8205
1761893,1645889025.538,8204
1761894,1645889025.54,8203
1761895,1645889025.542,8203
1761896,1645889025.544,8202
1761897,1645889025.546,8201
1761898,1645889025.548,8200
1761899,1645889025.55,8199
1761900,1645889025.552,8198
1761901,1645889025.554,8197
1761902,1645889025.556,8196
1761903,1645889025.558,8196
1761904,1645889025.56,8195
1761905,1645889025.562,8195
1761906,1645889025.564,8195
1761907,1645889025.566,8197
1761908,1645889025.568,8199
1761909,1645889025.57,8202
1761910,1645889025.572,8204
1761911,1645889025.574,8206
1761912,1645889025.576,8207
1761913,1645889025.578,8207
1761914,1645889025.58,8207
1761915,1645889025.582,8206
1761916,1645889025.584,8206
1761917,1645889025.586,8205
1761918,1645889025.588,8206
1761919,1645889025.59,8207
1761920,1645889025.592,8209
1761921,1645889025.594,8212
1761922,1645889025.596,8215
1761923,1645889025.598,8217
1761924,1645889025.6,8218
1761925,1645889025.602,8219
1761926,1645889025.604,8219
1761927,1645889025.606,8218
1761928,1645889025.608,8215
1761929,1645889025.61,8212
1761930,1645889025.612,8208
1761931,1645889025.614,8205
1761932,1645889025.616,8201
1761933,1645889025.618,8197
1761934,1645889025.62,8194
1761935,1645889025.622,8191
1761936,1645889025.624,8187
1761937,1645889025.626,8183
1761938,1645889025.628,8180
1761939,1645889025.63,8178
1761940,1645889025.632,8178
1761941,1645889025.634,8178
1761942,1645889025.636,8178
1761943,1645889025.638,8178
1761944,1645889025.64,8177
1761945,1645889025.642,8177
1761946,1645889025.644,8177
1761947,1645889025.646,8176
1761948,1645889025.648,8175
1761949,1645889025.65,8174
1761950,1645889025.652,8174
1761951,1645889025.654,8174
1761952,1645889025.656,8174
1761953,1645889025.658,8174
1761954,1645889025.66,8173
1761955,1645889025.662,8172
1761956,1645889025.664,8172
1761957,1645889025.666,8171
1761958,1645889025.668,8170
1761959,1645889025.67,8170
1761960,1645889025.672,8170
1761961,1645889025.674,8170
1761962,1645889025.676,8170
1761963,1645889025.678,8169
1761964,1645889025.68,8168
1761965,1645889025.682,8167
1761966,1645889025.684,8167
1761967,1645889025.686,8167
1761968,1645889025.688,8167
1761969,1645889025.69,8166
1761970,1645889025.692,8166
1761971,1645889025.694,8166
1761972,1645889025.696,8166
1761973,1645889025.698,8167
1761974,1645889025.7,8168
1761975,1645889025.702,8168
1761976,1645889025.704,8168
1761977,1645889025.706,8168
1761978,1645889025.708,8167
1761979,1645889025.71,8165
1761980,1645889025.712,8161
1761981,1645889025.714,8159
1761982,1645889025.716,8160
1761983,1645889025.718,8165
1761984,1645889025.72,8177
1761985,1645889025.722,8194
1761986,1645889025.724,8216
1761987,1645889025.726,8239
1761988,1645889025.728,8261
1761989,1645889025.73,8280
1761990,1645889025.732,8301
1761991,1645889025.734,8328
1761992,1645889025.736,8359
1761993,1645889025.738,8382
1761994,1645889025.74,8381
1761995,1645889025.742,8349
1761996,1645889025.744,8292
1761997,1645889025.746,8223
1761998,1645889025.748,8161
1761999,1645889025.75,8116
1762000,1645889025.752,8091
1762001,1645889025.754,8082
1762002,1645889025.756,8083
1762003,1645889025.758,8091
1762004,1645889025.76,8101
1762005,1645889025.762,8112
1762006,1645889025.764,8123
1762007,1645889025.766,8136
1762008,1645889025.768,8148
1762009,1645889025.77,8156
1762010,1645889025.772,8161
1762011,1645889025.774,8162
1762012,1645889025.776,8162
1762013,1645889025.778,8162
1762014,1645889025.78,8162
1762015,1645889025.782,8163
1762016,1645889025.784,8163
1762017,1645889025.786,8164
1762018,1645889025.788,8164
1762019,1645889025.79,8165
1762020,1645889025.792,8165
1762021,1645889025.794,8165
1762022,1645889025.796,8166
1762023,1645889025.798,8167
1762024,1645889025.8,8167
1762025,1645889025.802,8168
1762026,1645889025.804,8168
1762027,1645889025.806,8168
1762028,1645889025.808,8169
1762029,1645889025.81,8169
1762030,1645889025.812,8170
1762031,1645889025.814,8171
1762032,1645889025.816,8172
1762033,1645889025.818,8172
1762034,1645889025.82,8173
1762035,1645889025.822,8173
1762036,1645889025.824,8173
1762037,1645889025.826,8174
1762038,1645889025.828,8174
1762039,1645889025.83,8174
1762040,1645889025.832,8175
1762041,1645889025.834,8175
1762042,1645889025.836,8175
1762043,1645889025.838,8175
1762044,1645889025.84,8175
1762045,1645889025.842,8176
1762046,1645889025.844,8176
1762047,1645889025.846,8176
1762048,1645889025.848,8177
1762049,1645889025.85,8178
1762050,1645889025.852,8178
1762051,1645889025.854,8179
1762052,1645889025.856,8179
1762053,1645889025.858,8179
1762054,1645889025.86,8179
1762055,1645889025.862,8179
1762056,1645889025.864,8179
1762057,1645889025.866,8180
1762058,1645889025.868,8180
1762059,1645889025.87,8180
1762060,1645889025.872,8180
1762061,1645889025.874,8181
1762062,1645889025.876,8182
1762063,1645889025.878,8183
1762064,1645889025.88,8183
1762065,1645889025.882,8184
1762066,1645889025.884,8185
1762067,1645889025.886,8186
1762068,1645889025.888,8186
1762069,1645889025.89,8187
1762070,1645889025.892,8188
1762071,1645889025.894,8189
1762072,1645889025.896,8191
1762073,1645889025.898,8192
1762074,1645889025.9,8194
1762075,1645889025.902,8196
1762076,1645889025.904,8197
1762077,1645889025.906,8199
1762078,1645889025.908,8200
1762079,1645889025.91,8202
1762080,1645889025.912,8203
1762081,1645889025.914,8204
1762082,1645889025.916,8206
1762083,1645889025.918,8207
1762084,1645889025.92,8208
1762085,1645889025.922,8208
1762086,1645889025.924,8208
1762087,1645889025.926,8209
1762088,1645889025.928,8210
1762089,1645889025.93,8211
1762090,1645889025.932,8211
1762091,1645889025.934,8212
1762092,1645889025.936,8213
1762093,1645889025.938,8213
1762094,1645889025.94,8213
1762095,1645889025.942,8213
1762096,1645889025.944,8212
1762097,1645889025.946,8212
1762098,1645889025.948,8212
1762099,1645889025.95,8212
1762100,1645889025.952,8211
1762101,1645889025.954,8211
1762102,1645889025.956,8210
1762103,1645889025.958,8210
1762104,1645889025.96,8209
1762105,1645889025.962,8209
1762106,1645889025.964,8209
1762107,1645889025.966,8209
1762108,1645889025.968,8208
1762109,1645889025.97,8207
1762110,1645889025.972,8206
1762111,1645889025.974,8205
1762112,1645889025.976,8204
1762113,1645889025.978,8203
1762114,1645889025.98,8203
1762115,1645889025.982,8202
1762116,1645889025.984,8202
1762117,1645889025.986,8202
1762118,1645889025.988,8202
1762119,1645889025.99,8202
1762120,1645889025.992,8204
1762121,1645889025.994,8206
1762122,1645889025.996,8208
1762123,1645889025.998,8211
1762124,1645889026.0,8212
1762125,1645889026.002,8213
1762126,1645889026.004,8213
1762127,1645889026.006,8213
1762128,1645889026.008,8213
1762129,1645889026.01,8213
1762130,1645889026.012,8212
1762131,1645889026.014,8212
1762132,1645889026.016,8213
1762133,1645889026.018,8215
1762134,1645889026.02,8217
1762135,1645889026.022,8219
1762136,1645889026.024,8221
1762137,1645889026.026,8223
1762138,1645889026.028,8223
1762139,1645889026.03,8222
1762140,1645889026.032,8219
1762141,1645889026.034,8216
1762142,1645889026.036,8213
1762143,1645889026.038,8210
1762144,1645889026.04,8206
1762145,1645889026.042,8203
1762146,1645889026.044,8199
1762147,1645889026.046,8196
1762148,1645889026.048,8193
1762149,1645889026.05,8189
1762150,1645889026.052,8186
1762151,1645889026.054,8183
1762152,1645889026.056,8181
1762153,1645889026.058,8180
1762154,1645889026.06,8180
1762155,1645889026.062,8180
1762156,1645889026.064,8179
1762157,1645889026.066,8179
1762158,1645889026.068,8179
1762159,1645889026.07,8178
1762160,1645889026.072,8178
1762161,1645889026.074,8178
1762162,1645889026.076,8178
1762163,1645889026.078,8178
1762164,1645889026.08,8177
1762165,1645889026.082,8177
1762166,1645889026.084,8176
1762167,1645889026.086,8176
1762168,1645889026.088,8175
1762169,1645889026.09,8175
1762170,1645889026.092,8175
1762171,1645889026.094,8175
1762172,1645889026.096,8175
1762173,1645889026.098,8175
1762174,1645889026.1,8176
1762175,1645889026.102,8177
1762176,1645889026.104,8177
1762177,1645889026.106,8177
1762178,1645889026.108,8177
1762179,1645889026.11,8178
1762180,1645889026.112,8178
1762181,1645889026.114,8178
1762182,1645889026.116,8178
1762183,1645889026.118,8178
1762184,1645889026.12,8178
1762185,1645889026.122,8178
1762186,1645889026.124,8178
1762187,1645889026.126,8178
1762188,1645889026.128,8178
1762189,1645889026.13,8178
1762190,1645889026.132,8178
1762191,1645889026.134,8177
1762192,1645889026.136,8174
1762193,1645889026.138,8171
1762194,1645889026.14,8170
1762195,1645889026.142,8172
1762196,1645889026.144,8180
1762197,1645889026.146,8193
1762198,1645889026.148,8211
1762199,1645889026.15,8233
1762200,1645889026.152,8256
1762201,1645889026.154,8278
1762202,1645889026.156,8299
1762203,1645889026.158,8324
1762204,1645889026.16,8354
1762205,1645889026.162,8384
1762206,1645889026.164,8398
1762207,1645889026.166,8386
1762208,1645889026.168,8345
1762209,1645889026.17,8282
1762210,1645889026.172,8213
1762211,1645889026.174,8154
1762212,1645889026.176,8114
1762213,1645889026.178,8094
1762214,1645889026.18,8090
1762215,1645889026.182,8095
1762216,1645889026.184,8104
1762217,1645889026.186,8114
1762218,1645889026.188,8124
1762219,1645889026.19,8135
1762220,1645889026.192,8147
1762221,1645889026.194,8158
1762222,1645889026.196,8165
1762223,1645889026.198,8168
1762224,1645889026.2,8169
1762225,1645889026.202,8169
1762226,1645889026.204,8168
1762227,1645889026.206,8168
1762228,1645889026.208,8169
1762229,1645889026.21,8169
1762230,1645889026.212,8170
1762231,1645889026.214,8170
1762232,1645889026.216,8170
1762233,1645889026.218,8170
1762234,1645889026.22,8170
1762235,1645889026.222,8170
1762236,1645889026.224,8170
1762237,1645889026.226,8171
1762238,1645889026.228,8171
1762239,1645889026.23,8171
1762240,1645889026.232,8171
1762241,1645889026.234,8171
1762242,1645889026.236,8172
1762243,1645889026.238,8172
1762244,1645889026.24,8172
1762245,1645889026.242,8173
1762246,1645889026.244,8173
1762247,1645889026.246,8173
1762248,1645889026.248,8173
1762249,1645889026.25,8173
1762250,1645889026.252,8173
1762251,1645889026.254,8173
1762252,1645889026.256,8173
1762253,1645889026.258,8174
1762254,1645889026.26,8174
1762255,1645889026.262,8174
1762256,1645889026.264,8175
1762257,1645889026.266,8176
1762258,1645889026.268,8176
1762259,1645889026.27,8176
1762260,1645889026.272,8176
1762261,1645889026.274,8177
1762262,1645889026.276,8177
1762263,1645889026.278,8177
1762264,1645889026.28,8176
1762265,1645889026.282,8176
1762266,1645889026.284,8177
1762267,1645889026.286,8177
1762268,1645889026.288,8178
1762269,1645889026.29,8178
1762270,1645889026.292,8178
1762271,1645889026.294,8179
1762272,1645889026.296,8179
1762273,1645889026.298,8179
1762274,1645889026.3,8180
1762275,1645889026.302,8180
1762276,1645889026.304,8181
1762277,1645889026.306,8181
1762278,1645889026.308,8182
1762279,1645889026.31,8182
1762280,1645889026.312,8183
1762281,1645889026.314,8184
1762282,1645889026.316,8185
1762283,1645889026.318,8186
1762284,1645889026.32,8187
1762285,1645889026.322,8188
1762286,1645889026.324,8189
1762287,1645889026.326,8191
1762288,1645889026.328,8192
1762289,1645889026.33,8194
1762290,1645889026.332,8195
1762291,1645889026.334,8196
1762292,1645889026.336,8198
1762293,1645889026.338,8199
1762294,1645889026.34,8200
1762295,1645889026.342,8201
1762296,1645889026.344,8202
1762297,1645889026.346,8203
1762298,1645889026.348,8203
1762299,1645889026.35,8204
1762300,1645889026.352,8204
1762301,1645889026.354,8203
1762302,1645889026.356,8204
1762303,1645889026.358,8204
1762304,1645889026.36,8204
1762305,1645889026.362,8204
1762306,1645889026.364,8204
1762307,1645889026.366,8204
1762308,1645889026.368,8204
1762309,1645889026.37,8204
1762310,1645889026.372,8204
1762311,1645889026.374,8204
1762312,1645889026.376,8203
1762313,1645889026.378,8203
1762314,1645889026.38,8203
1762315,1645889026.382,8203
1762316,1645889026.384,8203
1762317,1645889026.386,8203
1762318,1645889026.388,8203
1762319,1645889026.39,8202
1762320,1645889026.392,8201
1762321,1645889026.394,8200
1762322,1645889026.396,8199
1762323,1645889026.398,8198
1762324,1645889026.4,8197
1762325,1645889026.402,8196
1762326,1645889026.404,8195
1762327,1645889026.406,8194
1762328,1645889026.408,8194
1762329,1645889026.41,8193
1762330,1645889026.412,8193
1762331,1645889026.414,8193
1762332,1645889026.416,8195
1762333,1645889026.418,8197
1762334,1645889026.42,8199
1762335,1645889026.422,8202
1762336,1645889026.424,8204
1762337,1645889026.426,8205
1762338,1645889026.428,8206
1762339,1645889026.43,8206
1762340,1645889026.432,8206
1762341,1645889026.434,8205
1762342,1645889026.436,8205
1762343,1645889026.438,8205
1762344,1645889026.44,8205
1762345,1645889026.442,8206
1762346,1645889026.444,8208
1762347,1645889026.446,8210
1762348,1645889026.448,8212
1762349,1645889026.45,8213
1762350,1645889026.452,8215
1762351,1645889026.454,8215
1762352,1645889026.456,8213
1762353,1645889026.458,8210
1762354,1645889026.46,8207
1762355,1645889026.462,8203
1762356,1645889026.464,8200
1762357,1645889026.466,8196
1762358,1645889026.468,8192
1762359,1645889026.47,8189
1762360,1645889026.472,8186
1762361,1645889026.474,8183
1762362,1645889026.476,8180
1762363,1645889026.478,8176
1762364,1645889026.48,8173
1762365,1645889026.482,8172
1762366,1645889026.484,8171
1762367,1645889026.486,8171
1762368,1645889026.488,8171
1762369,1645889026.49,8171
1762370,1645889026.492,8171
1762371,1645889026.494,8171
1762372,1645889026.496,8170
1762373,1645889026.498,8170
1762374,1645889026.5,8170
1762375,1645889026.502,8170
1762376,1645889026.504,8170
1762377,1645889026.506,8170
1762378,1645889026.508,8170
1762379,1645889026.51,8170
1762380,1645889026.512,8170
1762381,1645889026.514,8169
1762382,1645889026.516,8169
1762383,1645889026.518,8169
1762384,1645889026.52,8169
1762385,1645889026.522,8169
1762386,1645889026.524,8169
1762387,1645889026.526,8170
1762388,1645889026.528,8170
1762389,1645889026.53,8169
1762390,1645889026.532,8170
1762391,1645889026.534,8170
1762392,1645889026.536,8170
1762393,1645889026.538,8170
1762394,1645889026.54,8171
1762395,1645889026.542,8171
1762396,1645889026.544,8171
1762397,1645889026.546,8172
1762398,1645889026.548,8172
1762399,1645889026.55,8173
1762400,1645889026.552,8173
1762401,1645889026.554,8173
1762402,1645889026.556,8173
1762403,1645889026.558,8173
1762404,1645889026.56,8171
1762405,1645889026.562,8168
1762406,1645889026.564,8165
1762407,1645889026.566,8165
1762408,1645889026.568,8169
1762409,1645889026.57,8180
1762410,1645889026.572,8197
1762411,1645889026.574,8217
1762412,1645889026.576,8239
1762413,1645889026.578,8260
1762414,1645889026.58,8280
1762415,1645889026.582,8301
1762416,1645889026.584,8328
1762417,1645889026.586,8361
1762418,1645889026.588,8389
1762419,1645889026.59,8395
1762420,1645889026.592,8372
1762421,1645889026.594,8320
1762422,1645889026.596,8253
1762423,1645889026.598,8188
1762424,1645889026.6,8137
1762425,1645889026.602,8104
1762426,1645889026.604,8090
1762427,1645889026.606,8089
1762428,1645889026.608,8095
1762429,1645889026.61,8105
1762430,1645889026.612,8116
1762431,1645889026.614,8129
1762432,1645889026.616,8142
1762433,1645889026.618,8155
1762434,1645889026.62,8164
1762435,1645889026.622,8169
1762436,1645889026.624,8170
1762437,1645889026.626,8169
1762438,1645889026.628,8169
1762439,1645889026.63,8169
1762440,1645889026.632,8170
1762441,1645889026.634,8170
1762442,1645889026.636,8171
1762443,1645889026.638,8172
1762444,1645889026.64,8172
1762445,1645889026.642,8173
1762446,1645889026.644,8173
1762447,1645889026.646,8174
1762448,1645889026.648,8174
1762449,1645889026.65,8175
1762450,1645889026.652,8176
1762451,1645889026.654,8177
1762452,1645889026.656,8178
1762453,1645889026.658,8178
1762454,1645889026.66,8179
1762455,1645889026.662,8179
1762456,1645889026.664,8179
1762457,1645889026.666,8180
1762458,1645889026.668,8180
1762459,1645889026.67,8180
1762460,1645889026.672,8181
1762461,1645889026.674,8181
1762462,1645889026.676,8182
1762463,1645889026.678,8183
1762464,1645889026.68,8183
1762465,1645889026.682,8184
1762466,1645889026.684,8184
1762467,1645889026.686,8184
1762468,1645889026.688,8184
1762469,1645889026.69,8185
1762470,1645889026.692,8185
1762471,1645889026.694,8186
1762472,1645889026.696,8186
1762473,1645889026.698,8186
1762474,1645889026.7,8186
1762475,1645889026.702,8186
1762476,1645889026.704,8186
1762477,1645889026.706,8187
1762478,1645889026.708,8187
1762479,1645889026.71,8187
1762480,1645889026.712,8188
1762481,1645889026.714,8188
1762482,1645889026.716,8188
1762483,1645889026.718,8189
1762484,1645889026.72,8189
1762485,1645889026.722,8190
1762486,1645889026.724,8190
1762487,1645889026.726,8190
1762488,1645889026.728,8190
1762489,1645889026.73,8191
1762490,1645889026.732,8191
1762491,1645889026.734,8192
1762492,1645889026.736,8193
1762493,1645889026.738,8193
1762494,1645889026.74,8194
1762495,1645889026.742,8195
1762496,1645889026.744,8196
1762497,1645889026.746,8197
1762498,1645889026.748,8198
1762499,1645889026.75,8199
1762500,1645889026.752,8201
1762501,1645889026.754,8202
1762502,1645889026.756,8203
1762503,1645889026.758,8204
1762504,1645889026.76,8205
1762505,1645889026.762,8206
1762506,1645889026.764,8207
1762507,1645889026.766,8208
1762508,1645889026.768,8209
1762509,1645889026.77,8210
1762510,1645889026.772,8211
1762511,1645889026.774,8212
1762512,1645889026.776,8212
1762513,1645889026.778,8213
1762514,1645889026.78,8213
1762515,1645889026.782,8214
1762516,1645889026.784,8214
1762517,1645889026.786,8214
1762518,1645889026.788,8214
1762519,1645889026.79,8213
1762520,1645889026.792,8213
1762521,1645889026.794,8213
1762522,1645889026.796,8213
1762523,1645889026.798,8213
1762524,1645889026.8,8213
1762525,1645889026.802,8213
1762526,1645889026.804,8213
1762527,1645889026.806,8213
1762528,1645889026.808,8213
1762529,1645889026.81,8212
1762530,1645889026.812,8212
1762531,1645889026.814,8211
1762532,1645889026.816,8211
1762533,1645889026.818,8210
1762534,1645889026.82,8209
1762535,1645889026.822,8208
1762536,1645889026.824,8207
1762537,1645889026.826,8205
1762538,1645889026.828,8204
1762539,1645889026.83,8203
1762540,1645889026.832,8202
1762541,1645889026.834,8202
1762542,1645889026.836,8202
1762543,1645889026.838,8202
1762544,1645889026.84,8202
1762545,1645889026.842,8203
1762546,1645889026.844,8205
1762547,1645889026.846,8207
1762548,1645889026.848,8210
1762549,1645889026.85,8212
1762550,1645889026.852,8213
1762551,1645889026.854,8213
1762552,1645889026.856,8213
1762553,1645889026.858,8213
1762554,1645889026.86,8213
1762555,1645889026.862,8213
1762556,1645889026.864,8214
1762557,1645889026.866,8215
1762558,1645889026.868,8216
1762559,1645889026.87,8218
1762560,1645889026.872,8220
1762561,1645889026.874,8222
1762562,1645889026.876,8224
1762563,1645889026.878,8225
1762564,1645889026.88,8225
1762565,1645889026.882,8223
1762566,1645889026.884,8220
1762567,1645889026.886,8216
1762568,1645889026.888,8213
1762569,1645889026.89,8209
1762570,1645889026.892,8206
1762571,1645889026.894,8201
1762572,1645889026.896,8197
1762573,1645889026.898,8194
1762574,1645889026.9,8190
1762575,1645889026.902,8187
1762576,1645889026.904,8184
1762577,1645889026.906,8183
1762578,1645889026.908,8182
1762579,1645889026.91,8181
1762580,1645889026.912,8182
1762581,1645889026.914,8182
1762582,1645889026.916,8182
1762583,1645889026.918,8181
1762584,1645889026.92,8180
1762585,1645889026.922,8180
1762586,1645889026.924,8180
1762587,1645889026.926,8179
1762588,1645889026.928,8179
1762589,1645889026.93,8178
1762590,1645889026.932,8178
1762591,1645889026.934,8177
1762592,1645889026.936,8177
1762593,1645889026.938,8177
1762594,1645889026.94,8177
1762595,1645889026.942,8177
1762596,1645889026.944,8177
1762597,1645889026.946,8176
1762598,1645889026.948,8176
1762599,1645889026.95,8176
1762600,1645889026.952,8175
1762601,1645889026.954,8175
1762602,1645889026.956,8175
1762603,1645889026.958,8175
1762604,1645889026.96,8175
1762605,1645889026.962,8175
1762606,1645889026.964,8175
1762607,1645889026.966,8175
1762608,1645889026.968,8175
1762609,1645889026.97,8175
1762610,1645889026.972,8175
1762611,1645889026.974,8175
1762612,1645889026.976,8175
1762613,1645889026.978,8175
1762614,1645889026.98,8175
1762615,1645889026.982,8175
1762616,1645889026.984,8174
1762617,1645889026.986,8171
1762618,1645889026.988,8168
1762619,1645889026.99,8165
1762620,1645889026.992,8166
1762621,1645889026.994,8172
1762622,1645889026.996,8183
1762623,1645889026.998,8201
1762624,1645889027.0,8223
1762625,1645889027.002,8247
1762626,1645889027.004,8270
1762627,1645889027.006,8290
1762628,1645889027.008,8313
1762629,1645889027.01,8342
1762630,1645889027.012,8372
1762631,1645889027.014,8393
1762632,1645889027.016,8390
1762633,1645889027.018,8357
1762634,1645889027.02,8299
1762635,1645889027.022,8228
1762636,1645889027.024,8164
1762637,1645889027.026,8117
1762638,1645889027.028,8090
1762639,1645889027.03,8082
1762640,1645889027.032,8085
1762641,1645889027.034,8094
1762642,1645889027.036,8104
1762643,1645889027.038,8114
1762644,1645889027.04,8127
1762645,1645889027.042,8140
1762646,1645889027.044,8152
1762647,1645889027.046,8159
1762648,1645889027.048,8162
1762649,1645889027.05,8163
1762650,1645889027.052,8163
1762651,1645889027.054,8163
1762652,1645889027.056,8163
1762653,1645889027.058,8163
1762654,1645889027.06,8164
1762655,1645889027.062,8164
1762656,1645889027.064,8164
1762657,1645889027.066,8164
1762658,1645889027.068,8165
1762659,1645889027.07,8165
1762660,1645889027.072,8166
1762661,1645889027.074,8166
1762662,1645889027.076,8166
1762663,1645889027.078,8167
1762664,1645889027.08,8168
1762665,1645889027.082,8169
1762666,1645889027.084,8169
1762667,1645889027.086,8169
1762668,1645889027.088,8169
1762669,1645889027.09,8169
1762670,1645889027.092,8169
1762671,1645889027.094,8169
1762672,1645889027.096,8170
1762673,1645889027.098,8170
1762674,1645889027.1,8170
1762675,1645889027.102,8170
1762676,1645889027.104,8170
1762677,1645889027.106,8170
1762678,1645889027.108,8171
1762679,1645889027.11,8172
1762680,1645889027.112,8173
1762681,1645889027.114,8173
1762682,1645889027.116,8174
1762683,1645889027.118,8174
1762684,1645889027.12,8174
1762685,1645889027.122,8175
1762686,1645889027.124,8175
1762687,1645889027.126,8175
1762688,1645889027.128,8176
1762689,1645889027.13,8176
1762690,1645889027.132,8176
1762691,1645889027.134,8176
1762692,1645889027.136,8177
1762693,1645889027.138,8178
1762694,1645889027.14,8178
1762695,1645889027.142,8179
1762696,1645889027.144,8180
1762697,1645889027.146,8180
1762698,1645889027.148,8181
1762699,1645889027.15,8182
1762700,1645889027.152,8182
1762701,1645889027.154,8183
1762702,1645889027.156,8183
1762703,1645889027.158,8184
1762704,1645889027.16,8184
1762705,1645889027.162,8185
1762706,1645889027.164,8186
1762707,1645889027.166,8187
1762708,1645889027.168,8188
1762709,1645889027.17,8189
1762710,1645889027.172,8190
1762711,1645889027.174,8191
1762712,1645889027.176,8192
1762713,1645889027.178,8194
1762714,1645889027.18,8195
1762715,1645889027.182,8196
1762716,1645889027.184,8198
1762717,1645889027.186,8199
1762718,1645889027.188,8200
1762719,1645889027.19,8200
1762720,1645889027.192,8201
1762721,1645889027.194,8202
1762722,1645889027.196,8203
1762723,1645889027.198,8204
1762724,1645889027.2,8205
1762725,1645889027.202,8205
1762726,1645889027.204,8205
1762727,1645889027.206,8205
1762728,1645889027.208,8205
1762729,1645889027.21,8206
1762730,1645889027.212,8207
1762731,1645889027.214,8207
1762732,1645889027.216,8207
1762733,1645889027.218,8208
1762734,1645889027.22,8208
1762735,1645889027.222,8208
1762736,1645889027.224,8208
1762737,1645889027.226,8208
1762738,1645889027.228,8208
1762739,1645889027.23,8208
1762740,1645889027.232,8207
1762741,1645889027.234,8207
1762742,1645889027.236,8206
1762743,1645889027.238,8206
1762744,1645889027.24,8205
1762745,1645889027.242,8204
1762746,1645889027.244,8203
1762747,1645889027.246,8202
1762748,1645889027.248,8201
1762749,1645889027.25,8200
1762750,1645889027.252,8199
1762751,1645889027.254,8198
1762752,1645889027.256,8198
1762753,1645889027.258,8197
1762754,1645889027.26,8196
1762755,1645889027.262,8195
1762756,1645889027.264,8195
1762757,1645889027.266,8195
1762758,1645889027.268,8197
1762759,1645889027.27,8198
1762760,1645889027.272,8200
1762761,1645889027.274,8202
1762762,1645889027.276,8204
1762763,1645889027.278,8205
1762764,1645889027.28,8206
1762765,1645889027.282,8206
1762766,1645889027.284,8205
1762767,1645889027.286,8204
1762768,1645889027.288,8203
1762769,1645889027.29,8202
1762770,1645889027.292,8202
1762771,1645889027.294,8203
1762772,1645889027.296,8204
1762773,1645889027.298,8207
1762774,1645889027.3,8209
1762775,1645889027.302,8210
1762776,1645889027.304,8211
1762777,1645889027.306,8211
1762778,1645889027.308,8209
1762779,1645889027.31,8206
1762780,1645889027.312,8203
1762781,1645889027.314,8199
1762782,1645889027.316,8196
1762783,1645889027.318,8193
1762784,1645889027.32,8189
1762785,1645889027.322,8185
1762786,1645889027.324,8181
1762787,1645889027.326,8178
1762788,1645889027.328,8175
1762789,1645889027.33,8172
1762790,1645889027.332,8170
1762791,1645889027.334,8169
1762792,1645889027.336,8168
1762793,1645889027.338,8168
1762794,1645889027.34,8167
1762795,1645889027.342,8167
1762796,1645889027.344,8166
1762797,1645889027.346,8166
1762798,1645889027.348,8166
1762799,1645889027.35,8165
1762800,1645889027.352,8165
1762801,1645889027.354,8165
1762802,1645889027.356,8165
1762803,1645889027.358,8165
1762804,1645889027.36,8165
1762805,1645889027.362,8165
1762806,1645889027.364,8165
1762807,1645889027.366,8165
1762808,1645889027.368,8166
1762809,1645889027.37,8166
1762810,1645889027.372,8165
1762811,1645889027.374,8165
1762812,1645889027.376,8165
1762813,1645889027.378,8165
1762814,1645889027.38,8165
1762815,1645889027.382,8165
1762816,1645889027.384,8165
1762817,1645889027.386,8165
1762818,1645889027.388,8165
1762819,1645889027.39,8165
1762820,1645889027.392,8165
1762821,1645889027.394,8165
1762822,1645889027.396,8166
1762823,1645889027.398,8166
1762824,1645889027.4,8166
1762825,1645889027.402,8166
1762826,1645889027.404,8166
1762827,1645889027.406,8167
1762828,1645889027.408,8166
1762829,1645889027.41,8166
1762830,1645889027.412,8164
1762831,1645889027.414,8162
1762832,1645889027.416,8160
1762833,1645889027.418,8161
1762834,1645889027.42,8168
1762835,1645889027.422,8179
1762836,1645889027.424,8195
1762837,1645889027.426,8215
1762838,1645889027.428,8237
1762839,1645889027.43,8260
1762840,1645889027.432,8281
1762841,1645889027.434,8304
1762842,1645889027.436,8333
1762843,1645889027.438,8365
1762844,1645889027.44,8388
1762845,1645889027.442,8386
1762846,1645889027.444,8355
1762847,1645889027.446,8302
1762848,1645889027.448,8238
1762849,1645889027.45,8176
1762850,1645889027.452,8128
1762851,1645889027.454,8099
1762852,1645889027.456,8088
1762853,1645889027.458,8089
1762854,1645889027.46,8097
1762855,1645889027.462,8107
1762856,1645889027.464,8119
1762857,1645889027.466,8131
1762858,1645889027.468,8144
1762859,1645889027.47,8156
1762860,1645889027.472,8165
1762861,1645889027.474,8170
1762862,1645889027.476,8172
1762863,1645889027.478,8172
1762864,1645889027.48,8172
1762865,1645889027.482,8172
1762866,1645889027.484,8172
1762867,1645889027.486,8172
1762868,1645889027.488,8173
1762869,1645889027.49,8173
1762870,1645889027.492,8173
1762871,1645889027.494,8174
1762872,1645889027.496,8175
1762873,1645889027.498,8176
1762874,1645889027.5,8177
1762875,1645889027.502,8178
1762876,1645889027.504,8178
1762877,1645889027.506,8179
1762878,1645889027.508,8180
1762879,1645889027.51,8180
1762880,1645889027.512,8180
1762881,1645889027.514,8180
1762882,1645889027.516,8180
1762883,1645889027.518,8180
1762884,1645889027.52,8181
1762885,1645889027.522,8181
1762886,1645889027.524,8182
1762887,1645889027.526,8183
1762888,1645889027.528,8183
1762889,1645889027.53,8184
1762890,1645889027.532,8184
1762891,1645889027.534,8184
1762892,1645889027.536,8184
1762893,1645889027.538,8184
1762894,1645889027.54,8185
1762895,1645889027.542,8186
1762896,1645889027.544,8186
1762897,1645889027.546,8187
1762898,1645889027.548,8188
1762899,1645889027.55,8188
1762900,1645889027.552,8188
1762901,1645889027.554,8188
1762902,1645889027.556,8188
1762903,1645889027.558,8188
1762904,1645889027.56,8189
1762905,1645889027.562,8189
1762906,1645889027.564,8189
1762907,1645889027.566,8190
1762908,1645889027.568,8191
1762909,1645889027.57,8191
1762910,1645889027.572,8192
1762911,1645889027.574,8192
1762912,1645889027.576,8192
1762913,1645889027.578,8192
1762914,1645889027.58,8192
1762915,1645889027.582,8193
1762916,1645889027.584,8193
1762917,1645889027.586,8194
1762918,1645889027.588,8195
1762919,1645889027.59,8195
1762920,1645889027.592,8196
1762921,1645889027.594,8197
1762922,1645889027.596,8198
1762923,1645889027.598,8199
1762924,1645889027.6,8201
1762925,1645889027.602,8202
1762926,1645889027.604,8203
1762927,1645889027.606,8204
1762928,1645889027.608,8206
1762929,1645889027.61,8208
1762930,1645889027.612,8209
1762931,1645889027.614,8211
1762932,1645889027.616,8212
1762933,1645889027.618,8213
1762934,1645889027.62,8214
1762935,1645889027.622,8214
1762936,1645889027.624,8215
1762937,1645889027.626,8215
1762938,1645889027.628,8215
1762939,1645889027.63,8215
1762940,1645889027.632,8216
1762941,1645889027.634,8216
1762942,1645889027.636,8216
1762943,1645889027.638,8216
1762944,1645889027.64,8216
1762945,1645889027.642,8216
1762946,1645889027.644,8216
1762947,1645889027.646,8216
1762948,1645889027.648,8216
1762949,1645889027.65,8216
1762950,1645889027.652,8215
1762951,1645889027.654,8215
1762952,1645889027.656,8214
1762953,1645889027.658,8213
1762954,1645889027.66,8213
1762955,1645889027.662,8212
1762956,1645889027.664,8211
1762957,1645889027.666,8210
1762958,1645889027.668,8209
1762959,1645889027.67,8209
1762960,1645889027.672,8208
1762961,1645889027.674,8207
1762962,1645889027.676,8207
1762963,1645889027.678,8205
1762964,1645889027.68,8204
1762965,1645889027.682,8203
1762966,1645889027.684,8201
1762967,1645889027.686,8200
1762968,1645889027.688,8200
1762969,1645889027.69,8200
1762970,1645889027.692,8200
1762971,1645889027.694,8202
1762972,1645889027.696,8204
1762973,1645889027.698,8207
1762974,1645889027.7,8209
1762975,1645889027.702,8210
1762976,1645889027.704,8211
1762977,1645889027.706,8211
1762978,1645889027.708,8211
1762979,1645889027.71,8210
1762980,1645889027.712,8209
1762981,1645889027.714,8208
1762982,1645889027.716,8208
1762983,1645889027.718,8209
1762984,1645889027.72,8210
1762985,1645889027.722,8212
1762986,1645889027.724,8214
1762987,1645889027.726,8216
1762988,1645889027.728,8218
1762989,1645889027.73,8219
1762990,1645889027.732,8219
1762991,1645889027.734,8217
1762992,1645889027.736,8214
1762993,1645889027.738,8211
1762994,1645889027.74,8207
1762995,1645889027.742,8203
1762996,1645889027.744,8199
1762997,1645889027.746,8195
1762998,1645889027.748,8191
1762999,1645889027.75,8188
1763000,1645889027.752,8185
1763001,1645889027.754,8181
1763002,1645889027.756,8178
1763003,1645889027.758,8176
1763004,1645889027.76,8174
1763005,1645889027.762,8173
1763006,1645889027.764,8173
1763007,1645889027.766,8173
1763008,1645889027.768,8173
1763009,1645889027.77,8173
1763010,1645889027.772,8173
1763011,1645889027.774,8172
1763012,1645889027.776,8172
1763013,1645889027.778,8172
1763014,1645889027.78,8171
1763015,1645889027.782,8171
1763016,1645889027.784,8171
1763017,1645889027.786,8171
1763018,1645889027.788,8170
1763019,1645889027.79,8170
1763020,1645889027.792,8170
1763021,1645889027.794,8169
1763022,1645889027.796,8169
1763023,1645889027.798,8169
1763024,1645889027.8,8168
1763025,1645889027.802,8168
1763026,1645889027.804,8168
1763027,1645889027.806,8168
1763028,1645889027.808,8168
1763029,1645889027.81,8168
1763030,1645889027.812,8167
1763031,1645889027.814,8167
1763032,1645889027.816,8167
1763033,1645889027.818,8167
1763034,1645889027.82,8167
1763035,1645889027.822,8167
1763036,1645889027.824,8167
1763037,1645889027.826,8167
1763038,1645889027.828,8167
1763039,1645889027.83,8167
1763040,1645889027.832,8167
1763041,1645889027.834,8167
1763042,1645889027.836,8165
1763043,1645889027.838,8162
1763044,1645889027.84,8160
1763045,1645889027.842,8159
1763046,1645889027.844,8161
1763047,1645889027.846,8168
1763048,1645889027.848,8181
1763049,1645889027.85,8198
1763050,1645889027.852,8219
1763051,1645889027.854,8242
1763052,1645889027.856,8264
1763053,1645889027.858,8283
1763054,1645889027.86,8305
1763055,1645889027.862,8333
1763056,1645889027.864,8364
1763057,1645889027.866,8383
1763058,1645889027.868,8376
1763059,1645889027.87,8339
1763060,1645889027.872,8278
1763061,1645889027.874,8210
1763062,1645889027.876,8150
1763063,1645889027.878,8108
1763064,1645889027.88,8086
1763065,1645889027.882,8080
1763066,1645889027.884,8084
1763067,1645889027.886,8093
1763068,1645889027.888,8103
1763069,1645889027.89,8114
1763070,1645889027.892,8126
1763071,1645889027.894,8138
1763072,1645889027.896,8149
1763073,1645889027.898,8156
1763074,1645889027.9,8160
1763075,1645889027.902,8161
1763076,1645889027.904,8160
1763077,1645889027.906,8160
1763078,1645889027.908,8160
1763079,1645889027.91,8160
1763080,1645889027.912,8161
1763081,1645889027.914,8161
1763082,1645889027.916,8162
1763083,1645889027.918,8162
1763084,1645889027.92,8162
1763085,1645889027.922,8163
1763086,1645889027.924,8164
1763087,1645889027.926,8164
1763088,1645889027.928,8164
1763089,1645889027.93,8165
1763090,1645889027.932,8165
1763091,1645889027.934,8166
1763092,1645889027.936,8167
1763093,1645889027.938,8167
1763094,1645889027.94,8167
1763095,1645889027.942,8167
1763096,1645889027.944,8168
1763097,1645889027.946,8168
1763098,1645889027.948,8169
1763099,1645889027.95,8170
1763100,1645889027.952,8171
1763101,1645889027.954,8171
1763102,1645889027.956,8171
1763103,1645889027.958,8171
1763104,1645889027.96,8172
1763105,1645889027.962,8172
1763106,1645889027.964,8173
1763107,1645889027.966,8173
1763108,1645889027.968,8173
1763109,1645889027.97,8173
1763110,1645889027.972,8174
1763111,1645889027.974,8174
1763112,1645889027.976,8175
1763113,1645889027.978,8176
1763114,1645889027.98,8177
1763115,1645889027.982,8177
1763116,1645889027.984,8178
1763117,1645889027.986,8178
1763118,1645889027.988,8178
1763119,1645889027.99,8179
1763120,1645889027.992,8179
1763121,1645889027.994,8179
1763122,1645889027.996,8180
1763123,1645889027.998,8180
1763124,1645889028.0,8181
1763125,1645889028.002,8182
1763126,1645889028.004,8182
1763127,1645889028.006,8183
1763128,1645889028.008,8183
1763129,1645889028.01,8184
1763130,1645889028.012,8184
1763131,1645889028.014,8185
1763132,1645889028.016,8185
1763133,1645889028.018,8186
1763134,1645889028.02,8187
1763135,1645889028.022,8188
1763136,1645889028.024,8189
1763137,1645889028.026,8191
1763138,1645889028.028,8193
1763139,1645889028.03,8194
1763140,1645889028.032,8196
1763141,1645889028.034,8198
1763142,1645889028.036,8199
1763143,1645889028.038,8200
1763144,1645889028.04,8201
1763145,1645889028.042,8202
1763146,1645889028.044,8204
1763147,1645889028.046,8204
1763148,1645889028.048,8205
1763149,1645889028.05,8204
1763150,1645889028.052,8204
1763151,1645889028.054,8204
1763152,1645889028.056,8204
1763153,1645889028.058,8205
1763154,1645889028.06,8205
1763155,1645889028.062,8205
1763156,1645889028.064,8206
1763157,1645889028.066,8206
1763158,1645889028.068,8206
1763159,1645889028.07,8206
1763160,1645889028.072,8206
1763161,1645889028.074,8206
1763162,1645889028.076,8205
1763163,1645889028.078,8205
1763164,1645889028.08,8204
1763165,1645889028.082,8204
1763166,1645889028.084,8203
1763167,1645889028.086,8202
1763168,1645889028.088,8201
1763169,1645889028.09,8201
1763170,1645889028.092,8200
1763171,1645889028.094,8200
1763172,1645889028.096,8199
1763173,1645889028.098,8198
1763174,1645889028.1,8198
1763175,1645889028.102,8197
1763176,1645889028.104,8196
1763177,1645889028.106,8195
1763178,1645889028.108,8194
1763179,1645889028.11,8193
1763180,1645889028.112,8193
1763181,1645889028.114,8193
1763182,1645889028.116,8193
1763183,1645889028.118,8195
1763184,1645889028.12,8197
1763185,1645889028.122,8199
1763186,1645889028.124,8203
1763187,1645889028.126,8205
1763188,1645889028.128,8207
1763189,1645889028.13,8208
1763190,1645889028.132,8208
1763191,1645889028.134,8207
1763192,1645889028.136,8207
1763193,1645889028.138,8207
1763194,1645889028.14,8207
1763195,1645889028.142,8206
1763196,1645889028.144,8207
1763197,1645889028.146,8209
1763198,1645889028.148,8211
1763199,1645889028.15,8214
1763200,1645889028.152,8215
1763201,1645889028.154,8217
1763202,1645889028.156,8217
1763203,1645889028.158,8215
1763204,1645889028.16,8213
1763205,1645889028.162,8209
1763206,1645889028.164,8206
1763207,1645889028.166,8203
1763208,1645889028.168,8200
1763209,1645889028.17,8196
1763210,1645889028.172,8192
1763211,1645889028.174,8188
1763212,1645889028.176,8185
1763213,1645889028.178,8182
1763214,1645889028.18,8179
1763215,1645889028.182,8177
1763216,1645889028.184,8175
1763217,1645889028.186,8174
1763218,1645889028.188,8174
1763219,1645889028.19,8174
1763220,1645889028.192,8174
1763221,1645889028.194,8174
1763222,1645889028.196,8174
1763223,1645889028.198,8174
1763224,1645889028.2,8174
1763225,1645889028.202,8174
1763226,1645889028.204,8174
1763227,1645889028.206,8174
1763228,1645889028.208,8174
1763229,1645889028.21,8174
1763230,1645889028.212,8174
1763231,1645889028.214,8174
1763232,1645889028.216,8174
1763233,1645889028.218,8174
1763234,1645889028.22,8174
1763235,1645889028.222,8175
1763236,1645889028.224,8175
1763237,1645889028.226,8175
1763238,1645889028.228,8175
1763239,1645889028.23,8176
1763240,1645889028.232,8176
1763241,1645889028.234,8176
1763242,1645889028.236,8176
1763243,1645889028.238,8176
1763244,1645889028.24,8176
1763245,1645889028.242,8176
1763246,1645889028.244,8177
1763247,1645889028.246,8177
1763248,1645889028.248,8178
1763249,1645889028.25,8178
1763250,1645889028.252,8178
1763251,1645889028.254,8178
1763252,1645889028.256,8178
1763253,1645889028.258,8178
1763254,1645889028.26,8177
1763255,1645889028.262,8175
1763256,1645889028.264,8172
1763257,1645889028.266,8169
1763258,1645889028.268,8168
1763259,1645889028.27,8172
1763260,1645889028.272,8180
1763261,1645889028.274,8194
1763262,1645889028.276,8212
1763263,1645889028.278,8233
1763264,1645889028.28,8256
1763265,1645889028.282,8278
1763266,1645889028.284,8299
1763267,1645889028.286,8324
1763268,1645889028.288,8356
1763269,1645889028.29,8384
1763270,1645889028.292,8395
1763271,1645889028.294,8380
1763272,1645889028.296,8337
1763273,1645889028.298,8274
1763274,1645889028.3,8206
1763275,1645889028.302,8149
1763276,1645889028.304,8111
1763277,1645889028.306,8093
1763278,1645889028.308,8090
1763279,1645889028.31,8096
1763280,1645889028.312,8106
1763281,1645889028.314,8116
1763282,1645889028.316,8127
1763283,1645889028.318,8139
1763284,1645889028.32,8152
1763285,1645889028.322,8162
1763286,1645889028.324,8169
1763287,1645889028.326,8172
1763288,1645889028.328,8173
1763289,1645889028.33,8173
1763290,1645889028.332,8173
1763291,1645889028.334,8172
1763292,1645889028.336,8172
1763293,1645889028.338,8173
1763294,1645889028.34,8173
1763295,1645889028.342,8174
1763296,1645889028.344,8175
1763297,1645889028.346,8176
1763298,1645889028.348,8176
1763299,1645889028.35,8177
1763300,1645889028.352,8177
1763301,1645889028.354,8178
1763302,1645889028.356,8178
1763303,1645889028.358,8179
1763304,1645889028.36,8179
1763305,1645889028.362,8180
1763306,1645889028.364,8181
1763307,1645889028.366,8181
1763308,1645889028.368,8182
1763309,1645889028.37,8183
1763310,1645889028.372,8184
1763311,1645889028.374,8185
1763312,1645889028.376,8186
1763313,1645889028.378,8186
1763314,1645889028.38,8187
1763315,1645889028.382,8187
1763316,1645889028.384,8188
1763317,1645889028.386,8188
1763318,1645889028.388,8189
1763319,1645889028.39,8189
1763320,1645889028.392,8190
1763321,1645889028.394,8190
1763322,1645889028.396,8191
1763323,1645889028.398,8191
1763324,1645889028.4,8192
1763325,1645889028.402,8193
1763326,1645889028.404,8193
1763327,1645889028.406,8193
1763328,1645889028.408,8193
1763329,1645889028.41,8193
1763330,1645889028.412,8194
1763331,1645889028.414,8194
1763332,1645889028.416,8195
1763333,1645889028.418,8196
1763334,1645889028.42,8196
1763335,1645889028.422,8196
1763336,1645889028.424,8197
1763337,1645889028.426,8197
1763338,1645889028.428,8197
1763339,1645889028.43,8198
1763340,1645889028.432,8198
1763341,1645889028.434,8199
1763342,1645889028.436,8200
1763343,1645889028.438,8201
1763344,1645889028.44,8203
1763345,1645889028.442,8204
1763346,1645889028.444,8205
1763347,1645889028.446,8206
1763348,1645889028.448,8207
1763349,1645889028.45,8209
1763350,1645889028.452,8210
1763351,1645889028.454,8212
1763352,1645889028.456,8213
1763353,1645889028.458,8214
1763354,1645889028.46,8216
1763355,1645889028.462,8218
1763356,1645889028.464,8219
1763357,1645889028.466,8221
1763358,1645889028.468,8222
1763359,1645889028.47,8223
1763360,1645889028.472,8224
1763361,1645889028.474,8225
1763362,1645889028.476,8226
1763363,1645889028.478,8227
1763364,1645889028.48,8227
1763365,1645889028.482,8227
1763366,1645889028.484,8227
1763367,1645889028.486,8228
1763368,1645889028.488,8228
1763369,1645889028.49,8228
1763370,1645889028.492,8228
1763371,1645889028.494,8228
1763372,1645889028.496,8228
1763373,1645889028.498,8228
1763374,1645889028.5,8227
1763375,1645889028.502,8227
1763376,1645889028.504,8227
1763377,1645889028.506,8227
1763378,1645889028.508,8226
1763379,1645889028.51,8226
1763380,1645889028.512,8226
1763381,1645889028.514,8226
1763382,1645889028.516,8225
1763383,1645889028.518,8224
1763384,1645889028.52,8223
1763385,1645889028.522,8222
1763386,1645889028.524,8221
1763387,1645889028.526,8220
1763388,1645889028.528,8219
1763389,1645889028.53,8217
1763390,1645889028.532,8217
1763391,1645889028.534,8216
1763392,1645889028.536,8216
1763393,1645889028.538,8215
1763394,1645889028.54,8215
1763395,1645889028.542,8215
1763396,1645889028.544,8216
1763397,1645889028.546,8218
1763398,1645889028.548,8220
1763399,1645889028.55,8223
1763400,1645889028.552,8225
1763401,1645889028.554,8226
1763402,1645889028.556,8227
1763403,1645889028.558,8227
1763404,1645889028.56,8227
1763405,1645889028.562,8227
1763406,1645889028.564,8227
1763407,1645889028.566,8227
1763408,1645889028.568,8228
1763409,1645889028.57,8229
1763410,1645889028.572,8231
1763411,1645889028.574,8234
1763412,1645889028.576,8236
1763413,1645889028.578,8238
1763414,1645889028.58,8239
1763415,1645889028.582,8239
1763416,1645889028.584,8237
1763417,1645889028.586,8234
1763418,1645889028.588,8231
1763419,1645889028.59,8228
1763420,1645889028.592,8224
1763421,1645889028.594,8221
1763422,1645889028.596,8217
1763423,1645889028.598,8213
1763424,1645889028.6,8210
1763425,1645889028.602,8206
1763426,1645889028.604,8202
1763427,1645889028.606,8199
1763428,1645889028.608,8197
1763429,1645889028.61,8196
1763430,1645889028.612,8195
1763431,1645889028.614,8195
1763432,1645889028.616,8195
1763433,1645889028.618,8194
1763434,1645889028.62,8193
1763435,1645889028.622,8193
1763436,1645889028.624,8192
1763437,1645889028.626,8192
1763438,1645889028.628,8191
1763439,1645889028.63,8191
1763440,1645889028.632,8190
1763441,1645889028.634,8190
1763442,1645889028.636,8189
1763443,1645889028.638,8188
1763444,1645889028.64,8188
1763445,1645889028.642,8187
1763446,1645889028.644,8187
1763447,1645889028.646,8186
1763448,1645889028.648,8185
1763449,1645889028.65,8185
1763450,1645889028.652,8184
1763451,1645889028.654,8183
1763452,1645889028.656,8182
1763453,1645889028.658,8181
1763454,1645889028.66,8180
1763455,1645889028.662,8180
1763456,1645889028.664,8180
1763457,1645889028.666,8180
1763458,1645889028.668,8180
1763459,1645889028.67,8180
1763460,1645889028.672,8180
1763461,1645889028.674,8180
1763462,1645889028.676,8179
1763463,1645889028.678,8179
1763464,1645889028.68,8179
1763465,1645889028.682,8179
1763466,1645889028.684,8179
1763467,1645889028.686,8178
1763468,1645889028.688,8175
1763469,1645889028.69,8172
1763470,1645889028.692,8170
1763471,1645889028.694,8170
1763472,1645889028.696,8176
1763473,1645889028.698,8187
1763474,1645889028.7,8205
1763475,1645889028.702,8227
1763476,1645889028.704,8250
1763477,1645889028.706,8272
1763478,1645889028.708,8292
1763479,1645889028.71,8311
1763480,1645889028.712,8338
1763481,1645889028.714,8369
1763482,1645889028.716,8395
1763483,1645889028.718,8397
1763484,1645889028.72,8369
1763485,1645889028.722,8314
1763486,1645889028.724,8245
1763487,1645889028.726,8179
1763488,1645889028.728,8130
1763489,1645889028.73,8101
1763490,1645889028.732,8091
1763491,1645889028.734,8093
1763492,1645889028.736,8101
1763493,1645889028.738,8111
1763494,1645889028.74,8122
1763495,1645889028.742,8135
1763496,1645889028.744,8148
1763497,1645889028.746,8160
1763498,1645889028.748,8167
1763499,1645889028.75,8170
1763500,1645889028.752,8171
1763501,1645889028.754,8171
1763502,1645889028.756,8170
1763503,1645889028.758,8170
1763504,1645889028.76,8170
1763505,1645889028.762,8171
1763506,1645889028.764,8171
1763507,1645889028.766,8171
1763508,1645889028.768,8171
1763509,1645889028.77,8172
1763510,1645889028.772,8172
1763511,1645889028.774,8173
1763512,1645889028.776,8173
1763513,1645889028.778,8174
1763514,1645889028.78,8174
1763515,1645889028.782,8174
1763516,1645889028.784,8174
1763517,1645889028.786,8175
1763518,1645889028.788,8175
1763519,1645889028.79,8176
1763520,1645889028.792,8176
1763521,1645889028.794,8177
1763522,1645889028.796,8177
1763523,1645889028.798,8177
1763524,1645889028.8,8178
1763525,1645889028.802,8178
1763526,1645889028.804,8178
1763527,1645889028.806,8178
1763528,1645889028.808,8178
1763529,1645889028.81,8178
1763530,1645889028.812,8179
1763531,1645889028.814,8179
1763532,1645889028.816,8180
1763533,1645889028.818,8180
1763534,1645889028.82,8180
1763535,1645889028.822,8181
1763536,1645889028.824,8181
1763537,1645889028.826,8181
1763538,1645889028.828,8181
1763539,1645889028.83,8181
1763540,1645889028.832,8181
1763541,1645889028.834,8181
1763542,1645889028.836,8181
1763543,1645889028.838,8181
1763544,1645889028.84,8181
1763545,1645889028.842,8181
1763546,1645889028.844,8181
1763547,1645889028.846,8180
1763548,1645889028.848,8178
1763549,1645889028.85,8178
1763550,1645889028.852,8179
1763551,1645889028.854,8181
1763552,1645889028.856,8182
1763553,1645889028.858,8182
1763554,1645889028.86,8182
1763555,1645889028.862,8183
1763556,1645889028.864,8184
1763557,1645889028.866,8185
1763558,1645889028.868,8186
1763559,1645889028.87,8188
1763560,1645889028.872,8189
1763561,1645889028.874,8192
1763562,1645889028.876,8195
1763563,1645889028.878,8197
1763564,1645889028.88,8198
1763565,1645889028.882,8199
1763566,1645889028.884,8200
1763567,1645889028.886,8201
1763568,1645889028.888,8202
1763569,1645889028.89,8203
1763570,1645889028.892,8205
1763571,1645889028.894,8207
1763572,1645889028.896,8209
1763573,1645889028.898,8211
1763574,1645889028.9,8213
1763575,1645889028.902,8213
1763576,1645889028.904,8213
1763577,1645889028.906,8212
1763578,1645889028.908,8212
1763579,1645889028.91,8213
1763580,1645889028.912,8213
1763581,1645889028.914,8214
1763582,1645889028.916,8214
1763583,1645889028.918,8215
1763584,1645889028.92,8215
1763585,1645889028.922,8216
1763586,1645889028.924,8216
1763587,1645889028.926,8215
1763588,1645889028.928,8215
1763589,1645889028.93,8215
1763590,1645889028.932,8214
1763591,1645889028.934,8214
1763592,1645889028.936,8213
1763593,1645889028.938,8213
1763594,1645889028.94,8213
1763595,1645889028.942,8212
1763596,1645889028.944,8211
1763597,1645889028.946,8210
1763598,1645889028.948,8209
1763599,1645889028.95,8207
1763600,1645889028.952,8206
1763601,1645889028.954,8205
1763602,1645889028.956,8204
1763603,1645889028.958,8204
1763604,1645889028.96,8203
1763605,1645889028.962,8202
1763606,1645889028.964,8202
1763607,1645889028.966,8202
1763608,1645889028.968,8202
1763609,1645889028.97,8203
1763610,1645889028.972,8205
1763611,1645889028.974,8208
1763612,1645889028.976,8211
1763613,1645889028.978,8213
1763614,1645889028.98,8215
1763615,1645889028.982,8216
1763616,1645889028.984,8217
1763617,1645889028.986,8217
1763618,1645889028.988,8217
1763619,1645889028.99,8217
1763620,1645889028.992,8217
1763621,1645889028.994,8217
1763622,1645889028.996,8218
1763623,1645889028.998,8220
1763624,1645889029.0,8222
1763625,1645889029.002,8225
1763626,1645889029.004,8227
1763627,1645889029.006,8229
1763628,1645889029.008,8230
1763629,1645889029.01,8228
1763630,1645889029.012,8226
1763631,1645889029.014,8222
1763632,1645889029.016,8219
1763633,1645889029.018,8216
1763634,1645889029.02,8212
1763635,1645889029.022,8208
1763636,1645889029.024,8204
1763637,1645889029.026,8200
1763638,1645889029.028,8196
1763639,1645889029.03,8193
1763640,1645889029.032,8190
1763641,1645889029.034,8189
1763642,1645889029.036,8188
1763643,1645889029.038,8188
1763644,1645889029.04,8188
1763645,1645889029.042,8188
1763646,1645889029.044,8188
1763647,1645889029.046,8189
1763648,1645889029.048,8189
1763649,1645889029.05,8190
1763650,1645889029.052,8190
1763651,1645889029.054,8190
1763652,1645889029.056,8190
1763653,1645889029.058,8189
1763654,1645889029.06,8189
1763655,1645889029.062,8189
1763656,1645889029.064,8189
1763657,1645889029.066,8188
1763658,1645889029.068,8188
1763659,1645889029.07,8188
1763660,1645889029.072,8188
1763661,1645889029.074,8189
1763662,1645889029.076,8189
1763663,1645889029.078,8190
1763664,1645889029.08,8190
1763665,1645889029.082,8190
1763666,1645889029.084,8190
1763667,1645889029.086,8190
1763668,1645889029.088,8191
1763669,1645889029.09,8191
1763670,1645889029.092,8192
1763671,1645889029.094,8192
1763672,1645889029.096,8193
1763673,1645889029.098,8193
1763674,1645889029.1,8193
1763675,1645889029.102,8193
1763676,1645889029.104,8194
1763677,1645889029.106,8195
1763678,1645889029.108,8196
1763679,1645889029.11,8197
1763680,1645889029.112,8197
1763681,1645889029.114,8194
1763682,1645889029.116,8189
1763683,1645889029.118,8185
1763684,1645889029.12,8185
1763685,1645889029.122,8189
1763686,1645889029.124,8200
1763687,1645889029.126,8217
1763688,1645889029.128,8238
1763689,1645889029.13,8261
1763690,1645889029.132,8283
1763691,1645889029.134,8304
1763692,1645889029.136,8327
1763693,1645889029.138,8355
1763694,1645889029.14,8387
1763695,1645889029.142,8410
1763696,1645889029.144,8411
1763697,1645889029.146,8384
1763698,1645889029.148,8329
1763699,1645889029.15,8260
1763700,1645889029.152,8193
1763701,1645889029.154,8142
1763702,1645889029.156,8111
1763703,1645889029.158,8098
1763704,1645889029.16,8099
1763705,1645889029.162,8106
1763706,1645889029.164,8115
1763707,1645889029.166,8124
1763708,1645889029.168,8134
1763709,1645889029.17,8146
1763710,1645889029.172,8158
1763711,1645889029.174,8166
1763712,1645889029.176,8169
1763713,1645889029.178,8170
1763714,1645889029.18,8168
1763715,1645889029.182,8167
1763716,1645889029.184,8165
1763717,1645889029.186,8164
1763718,1645889029.188,8163
1763719,1645889029.19,8161
1763720,1645889029.192,8160
1763721,1645889029.194,8159
1763722,1645889029.196,8157
1763723,1645889029.198,8156
1763724,1645889029.2,8155
1763725,1645889029.202,8154
1763726,1645889029.204,8153
1763727,1645889029.206,8152
1763728,1645889029.208,8151
1763729,1645889029.21,8151
1763730,1645889029.212,8151
1763731,1645889029.214,8151
1763732,1645889029.216,8150
1763733,1645889029.218,8149
1763734,1645889029.22,8148
1763735,1645889029.222,8147
1763736,1645889029.224,8147
1763737,1645889029.226,8146
1763738,1645889029.228,8146
1763739,1645889029.23,8145
1763740,1645889029.232,8144
1763741,1645889029.234,8143
1763742,1645889029.236,8143
1763743,1645889029.238,8142
1763744,1645889029.24,8142
1763745,1645889029.242,8141
1763746,1645889029.244,8140
1763747,1645889029.246,8138
1763748,1645889029.248,8137
1763749,1645889029.25,8136
1763750,1645889029.252,8135
1763751,1645889029.254,8134
1763752,1645889029.256,8134
1763753,1645889029.258,8133
1763754,1645889029.26,8133
1763755,1645889029.262,8132
1763756,1645889029.264,8132
1763757,1645889029.266,8132
1763758,1645889029.268,8131
1763759,1645889029.27,8131
1763760,1645889029.272,8130
1763761,1645889029.274,8130
1763762,1645889029.276,8129
1763763,1645889029.278,8129
1763764,1645889029.28,8128
1763765,1645889029.282,8128
1763766,1645889029.284,8127
1763767,1645889029.286,8127
1763768,1645889029.288,8127
1763769,1645889029.29,8127
1763770,1645889029.292,8128
1763771,1645889029.294,8129
1763772,1645889029.296,8131
1763773,1645889029.298,8134
1763774,1645889029.3,8136
1763775,1645889029.302,8137
1763776,1645889029.304,8136
1763777,1645889029.306,8134
1763778,1645889029.308,8133
1763779,1645889029.31,8133
1763780,1645889029.312,8134
1763781,1645889029.314,8134
1763782,1645889029.316,8134
1763783,1645889029.318,8135
1763784,1645889029.32,8135
1763785,1645889029.322,8135
1763786,1645889029.324,8135
1763787,1645889029.326,8135
1763788,1645889029.328,8135
1763789,1645889029.33,8135
1763790,1645889029.332,8135
1763791,1645889029.334,8135
1763792,1645889029.336,8136
1763793,1645889029.338,8135
1763794,1645889029.34,8135
1763795,1645889029.342,8135
1763796,1645889029.344,8134
1763797,1645889029.346,8133
1763798,1645889029.348,8131
1763799,1645889029.35,8130
1763800,1645889029.352,8128
1763801,1645889029.354,8126
1763802,1645889029.356,8124
1763803,1645889029.358,8122
1763804,1645889029.36,8120
1763805,1645889029.362,8118
1763806,1645889029.364,8116
1763807,1645889029.366,8115
1763808,1645889029.368,8113
1763809,1645889029.37,8111
1763810,1645889029.372,8108
1763811,1645889029.374,8106
1763812,1645889029.376,8104
1763813,1645889029.378,8102
1763814,1645889029.38,8100
1763815,1645889029.382,8098
1763816,1645889029.384,8096
1763817,1645889029.386,8095
1763818,1645889029.388,8094
1763819,1645889029.39,8094
1763820,1645889029.392,8094
1763821,1645889029.394,8095
1763822,1645889029.396,8096
1763823,1645889029.398,8099
1763824,1645889029.4,8102
1763825,1645889029.402,8105
1763826,1645889029.404,8107
1763827,1645889029.406,8109
1763828,1645889029.408,8110
1763829,1645889029.41,8111
1763830,1645889029.412,8111
1763831,1645889029.414,8112
1763832,1645889029.416,8114
1763833,1645889029.418,8115
1763834,1645889029.42,8117
1763835,1645889029.422,8120
1763836,1645889029.424,8124
1763837,1645889029.426,8129
1763838,1645889029.428,8134
1763839,1645889029.43,8139
1763840,1645889029.432,8143
1763841,1645889029.434,8146
1763842,1645889029.436,8147
1763843,1645889029.438,8147
1763844,1645889029.44,8147
1763845,1645889029.442,8146
1763846,1645889029.444,8145
1763847,1645889029.446,8145
1763848,1645889029.448,8144
1763849,1645889029.45,8142
1763850,1645889029.452,8142
1763851,1645889029.454,8141
1763852,1645889029.456,8140
1763853,1645889029.458,8140
1763854,1645889029.46,8140
1763855,1645889029.462,8142
1763856,1645889029.464,8144
1763857,1645889029.466,8147
1763858,1645889029.468,8149
1763859,1645889029.47,8152
1763860,1645889029.472,8154
1763861,1645889029.474,8157
1763862,1645889029.476,8159
1763863,1645889029.478,8161
1763864,1645889029.48,8163
1763865,1645889029.482,8164
1763866,1645889029.484,8166
1763867,1645889029.486,8168
1763868,1645889029.488,8170
1763869,1645889029.49,8172
1763870,1645889029.492,8173
1763871,1645889029.494,8175
1763872,1645889029.496,8177
1763873,1645889029.498,8179
1763874,1645889029.5,8182
1763875,1645889029.502,8185
1763876,1645889029.504,8188
1763877,1645889029.506,8190
1763878,1645889029.508,8192
1763879,1645889029.51,8194
1763880,1645889029.512,8195
1763881,1645889029.514,8196
1763882,1645889029.516,8196
1763883,1645889029.518,8195
1763884,1645889029.52,8194
1763885,1645889029.522,8193
1763886,1645889029.524,8194
1763887,1645889029.526,8195
1763888,1645889029.528,8198
1763889,1645889029.53,8201
1763890,1645889029.532,8204
1763891,1645889029.534,8207
1763892,1645889029.536,8208
1763893,1645889029.538,8208
1763894,1645889029.54,8205
1763895,1645889029.542,8199
1763896,1645889029.544,8193
1763897,1645889029.546,8191
1763898,1645889029.548,8196
1763899,1645889029.55,8210
1763900,1645889029.552,8229
1763901,1645889029.554,8253
1763902,1645889029.556,8278
1763903,1645889029.558,8302
1763904,1645889029.56,8324
1763905,1645889029.562,8347
1763906,1645889029.564,8376
1763907,1645889029.566,8409
1763908,1645889029.568,8432
1763909,1645889029.57,8431
1763910,1645889029.572,8399
1763911,1645889029.574,8342
1763912,1645889029.576,8275
1763913,1645889029.578,8213
1763914,1645889029.58,8165
1763915,1645889029.582,8135
1763916,1645889029.584,8123
1763917,1645889029.586,8123
1763918,1645889029.588,8129
1763919,1645889029.59,8139
1763920,1645889029.592,8149
1763921,1645889029.594,8160
1763922,1645889029.596,8172
1763923,1645889029.598,8184
1763924,1645889029.6,8192
1763925,1645889029.602,8197
1763926,1645889029.604,8199
1763927,1645889029.606,8199
1763928,1645889029.608,8200
1763929,1645889029.61,8200
1763930,1645889029.612,8200
1763931,1645889029.614,8200
1763932,1645889029.616,8200
1763933,1645889029.618,8200
1763934,1645889029.62,8200
1763935,1645889029.622,8200
1763936,1645889029.624,8200
1763937,1645889029.626,8200
1763938,1645889029.628,8201
1763939,1645889029.63,8201
1763940,1645889029.632,8201
1763941,1645889029.634,8201
1763942,1645889029.636,8202
1763943,1645889029.638,8202
1763944,1645889029.64,8202
1763945,1645889029.642,8203
1763946,1645889029.644,8203
1763947,1645889029.646,8203
1763948,1645889029.648,8204
1763949,1645889029.65,8204
1763950,1645889029.652,8204
1763951,1645889029.654,8204
1763952,1645889029.656,8204
1763953,1645889029.658,8204
1763954,1645889029.66,8204
1763955,1645889029.662,8203
1763956,1645889029.664,8203
1763957,1645889029.666,8203
1763958,1645889029.668,8203
1763959,1645889029.67,8203
1763960,1645889029.672,8203
1763961,1645889029.674,8202
1763962,1645889029.676,8202
1763963,1645889029.678,8202
1763964,1645889029.68,8203
1763965,1645889029.682,8203
1763966,1645889029.684,8203
1763967,1645889029.686,8203
1763968,1645889029.688,8203
1763969,1645889029.69,8203
1763970,1645889029.692,8204
1763971,1645889029.694,8204
1763972,1645889029.696,8205
1763973,1645889029.698,8205
1763974,1645889029.7,8206
1763975,1645889029.702,8207
1763976,1645889029.704,8208
1763977,1645889029.706,8209
1763978,1645889029.708,8210
1763979,1645889029.71,8211
1763980,1645889029.712,8211
1763981,1645889029.714,8211
1763982,1645889029.716,8212
1763983,1645889029.718,8213
1763984,1645889029.72,8213
1763985,1645889029.722,8215
1763986,1645889029.724,8216
1763987,1645889029.726,8217
1763988,1645889029.728,8218
1763989,1645889029.73,8219
1763990,1645889029.732,8221
1763991,1645889029.734,8223
1763992,1645889029.736,8224
1763993,1645889029.738,8226
1763994,1645889029.74,8227
1763995,1645889029.742,8229
1763996,1645889029.744,8230
1763997,1645889029.746,8230
1763998,1645889029.748,8231
1763999,1645889029.75,8231
1764000,1645889029.752,8231
1764001,1645889029.754,8231
1764002,1645889029.756,8231
1764003,1645889029.758,8232
1764004,1645889029.76,8233
1764005,1645889029.762,8233
1764006,1645889029.764,8233
1764007,1645889029.766,8233
1764008,1645889029.768,8233
1764009,1645889029.77,8233
1764010,1645889029.772,8233
1764011,1645889029.774,8233
1764012,1645889029.776,8233
1764013,1645889029.778,8233
1764014,1645889029.78,8232
1764015,1645889029.782,8232
1764016,1645889029.784,8231
1764017,1645889029.786,8231
1764018,1645889029.788,8230
1764019,1645889029.79,8229
1764020,1645889029.792,8228
1764021,1645889029.794,8227
1764022,1645889029.796,8226
1764023,1645889029.798,8225
1764024,1645889029.8,8225
1764025,1645889029.802,8224
1764026,1645889029.804,8223
1764027,1645889029.806,8223
1764028,1645889029.808,8222
1764029,1645889029.81,8222
1764030,1645889029.812,8221
1764031,1645889029.814,8221
1764032,1645889029.816,8221
1764033,1645889029.818,8221
1764034,1645889029.82,8222
1764035,1645889029.822,8224
1764036,1645889029.824,8227
1764037,1645889029.826,8231
1764038,1645889029.828,8235
1764039,1645889029.83,8238
1764040,1645889029.832,8240
1764041,1645889029.834,8241
1764042,1645889029.836,8240
1764043,1645889029.838,8239
1764044,1645889029.84,8238
1764045,1645889029.842,8237
1764046,1645889029.844,8236
1764047,1645889029.846,8237
1764048,1645889029.848,8238
1764049,1645889029.85,8241
1764050,1645889029.852,8243
1764051,1645889029.854,8245
1764052,1645889029.856,8246
1764053,1645889029.858,8247
1764054,1645889029.86,8246
1764055,1645889029.862,8244
1764056,1645889029.864,8241
1764057,1645889029.866,8239
1764058,1645889029.868,8236
1764059,1645889029.87,8232
1764060,1645889029.872,8227
1764061,1645889029.874,8221
1764062,1645889029.876,8215
1764063,1645889029.878,8210
1764064,1645889029.88,8206
1764065,1645889029.882,8202
1764066,1645889029.884,8199
1764067,1645889029.886,8197
1764068,1645889029.888,8196
1764069,1645889029.89,8195
1764070,1645889029.892,8196
1764071,1645889029.894,8196
1764072,1645889029.896,8196
1764073,1645889029.898,8197
1764074,1645889029.9,8198
1764075,1645889029.902,8200
1764076,1645889029.904,8201
1764077,1645889029.906,8202
1764078,1645889029.908,8203
1764079,1645889029.91,8203
1764080,1645889029.912,8202
1764081,1645889029.914,8202
1764082,1645889029.916,8201
1764083,1645889029.918,8200
1764084,1645889029.92,8200
1764085,1645889029.922,8200
1764086,1645889029.924,8200
1764087,1645889029.926,8199
1764088,1645889029.928,8199
1764089,1645889029.93,8200
1764090,1645889029.932,8200
1764091,1645889029.934,8199
1764092,1645889029.936,8199
1764093,1645889029.938,8199
1764094,1645889029.94,8199
1764095,1645889029.942,8198
1764096,1645889029.944,8199
1764097,1645889029.946,8199
1764098,1645889029.948,8199
1764099,1645889029.95,8199
1764100,1645889029.952,8198
1764101,1645889029.954,8198
1764102,1645889029.956,8198
1764103,1645889029.958,8198
1764104,1645889029.96,8198
1764105,1645889029.962,8197
1764106,1645889029.964,8195
1764107,1645889029.966,8192
1764108,1645889029.968,8189
1764109,1645889029.97,8187
1764110,1645889029.972,8189
1764111,1645889029.974,8196
1764112,1645889029.976,8208
1764113,1645889029.978,8226
1764114,1645889029.98,8247
1764115,1645889029.982,8270
1764116,1645889029.984,8292
1764117,1645889029.986,8313
1764118,1645889029.988,8336
1764119,1645889029.99,8364
1764120,1645889029.992,8393
1764121,1645889029.994,8411
1764122,1645889029.996,8403
1764123,1645889029.998,8366
1764124,1645889030.0,8305
1764125,1645889030.002,8235
1764126,1645889030.004,8173
1764127,1645889030.006,8129
1764128,1645889030.008,8106
1764129,1645889030.01,8099
1764130,1645889030.012,8103
1764131,1645889030.014,8111
1764132,1645889030.016,8120
1764133,1645889030.018,8130
1764134,1645889030.02,8142
1764135,1645889030.022,8155
1764136,1645889030.024,8166
1764137,1645889030.026,8175
1764138,1645889030.028,8179
1764139,1645889030.03,8180
1764140,1645889030.032,8180
1764141,1645889030.034,8180
1764142,1645889030.036,8180
1764143,1645889030.038,8180
1764144,1645889030.04,8181
1764145,1645889030.042,8181
1764146,1645889030.044,8181
1764147,1645889030.046,8182
1764148,1645889030.048,8182
1764149,1645889030.05,8183
1764150,1645889030.052,8183
1764151,1645889030.054,8183
1764152,1645889030.056,8184
1764153,1645889030.058,8184
1764154,1645889030.06,8185
1764155,1645889030.062,8186
1764156,1645889030.064,8186
1764157,1645889030.066,8187
1764158,1645889030.068,8187
1764159,1645889030.07,8187
1764160,1645889030.072,8187
1764161,1645889030.074,8188
1764162,1645889030.076,8188
1764163,1645889030.078,8189
1764164,1645889030.08,8189
1764165,1645889030.082,8189
1764166,1645889030.084,8190
1764167,1645889030.086,8191
1764168,1645889030.088,8191
1764169,1645889030.09,8191
1764170,1645889030.092,8192
1764171,1645889030.094,8192
1764172,1645889030.096,8192
1764173,1645889030.098,8192
1764174,1645889030.1,8192
1764175,1645889030.102,8192
1764176,1645889030.104,8193
1764177,1645889030.106,8194
1764178,1645889030.108,8194
1764179,1645889030.11,8195
1764180,1645889030.112,8196
1764181,1645889030.114,8196
1764182,1645889030.116,8196
1764183,1645889030.118,8196
1764184,1645889030.12,8196
1764185,1645889030.122,8195
1764186,1645889030.124,8195
1764187,1645889030.126,8195
1764188,1645889030.128,8194
1764189,1645889030.13,8194
1764190,1645889030.132,8193
1764191,1645889030.134,8192
1764192,1645889030.136,8191
1764193,1645889030.138,8190
1764194,1645889030.14,8189
1764195,1645889030.142,8188
1764196,1645889030.144,8187
1764197,1645889030.146,8187
1764198,1645889030.148,8186
1764199,1645889030.15,8186
1764200,1645889030.152,8186
1764201,1645889030.154,8186
1764202,1645889030.156,8186
1764203,1645889030.158,8186
1764204,1645889030.16,8187
1764205,1645889030.162,8188
1764206,1645889030.164,8189
1764207,1645889030.166,8190
1764208,1645889030.168,8191
1764209,1645889030.17,8192
1764210,1645889030.172,8193
1764211,1645889030.174,8194
1764212,1645889030.176,8195
1764213,1645889030.178,8196
1764214,1645889030.18,8196
1764215,1645889030.182,8196
1764216,1645889030.184,8196
1764217,1645889030.186,8197
1764218,1645889030.188,8197
1764219,1645889030.19,8197
1764220,1645889030.192,8196
1764221,1645889030.194,8196
1764222,1645889030.196,8196
1764223,1645889030.198,8196
1764224,1645889030.2,8196
1764225,1645889030.202,8195
1764226,1645889030.204,8194
1764227,1645889030.206,8194
1764228,1645889030.208,8193
1764229,1645889030.21,8191
1764230,1645889030.212,8190
1764231,1645889030.214,8188
1764232,1645889030.216,8187
1764233,1645889030.218,8186
1764234,1645889030.22,8185
1764235,1645889030.222,8184
1764236,1645889030.224,8183
1764237,1645889030.226,8182
1764238,1645889030.228,8181
1764239,1645889030.23,8181
1764240,1645889030.232,8180
1764241,1645889030.234,8179
1764242,1645889030.236,8179
1764243,1645889030.238,8178
1764244,1645889030.24,8177
1764245,1645889030.242,8177
1764246,1645889030.244,8177
1764247,1645889030.246,8178
1764248,1645889030.248,8180
1764249,1645889030.25,8183
1764250,1645889030.252,8186
1764251,1645889030.254,8188
1764252,1645889030.256,8189
1764253,1645889030.258,8190
1764254,1645889030.26,8191
1764255,1645889030.262,8190
1764256,1645889030.264,8190
1764257,1645889030.266,8190
1764258,1645889030.268,8190
1764259,1645889030.27,8190
1764260,1645889030.272,8191
1764261,1645889030.274,8192
1764262,1645889030.276,8194
1764263,1645889030.278,8197
1764264,1645889030.28,8198
1764265,1645889030.282,8199
1764266,1645889030.284,8199
1764267,1645889030.286,8198
1764268,1645889030.288,8195
1764269,1645889030.29,8191
1764270,1645889030.292,8187
1764271,1645889030.294,8183
1764272,1645889030.296,8179
1764273,1645889030.298,8176
1764274,1645889030.3,8172
1764275,1645889030.302,8169
1764276,1645889030.304,8166
1764277,1645889030.306,8162
1764278,1645889030.308,8158
1764279,1645889030.31,8155
1764280,1645889030.312,8154
1764281,1645889030.314,8153
1764282,1645889030.316,8153
1764283,1645889030.318,8154
1764284,1645889030.32,8154
1764285,1645889030.322,8154
1764286,1645889030.324,8154
1764287,1645889030.326,8154
1764288,1645889030.328,8155
1764289,1645889030.33,8155
1764290,1645889030.332,8156
1764291,1645889030.334,8156
1764292,1645889030.336,8156
1764293,1645889030.338,8157
1764294,1645889030.34,8157
1764295,1645889030.342,8158
1764296,1645889030.344,8158
1764297,1645889030.346,8158
1764298,1645889030.348,8159
1764299,1645889030.35,8160
1764300,1645889030.352,8160
1764301,1645889030.354,8160
1764302,1645889030.356,8160
1764303,1645889030.358,8161
1764304,1645889030.36,8162
1764305,1645889030.362,8162
1764306,1645889030.364,8163
1764307,1645889030.366,8164
1764308,1645889030.368,8165
1764309,1645889030.37,8166
1764310,1645889030.372,8166
1764311,1645889030.374,8167
1764312,1645889030.376,8167
1764313,1645889030.378,8168
1764314,1645889030.38,8169
1764315,1645889030.382,8169
1764316,1645889030.384,8169
1764317,1645889030.386,8169
1764318,1645889030.388,8169
