,times,values
1760000,1608630370.688,8216
1760001,1608630370.69,8216
1760002,1608630370.692,8215
1760003,1608630370.694,8215
1760004,1608630370.696,8214
1760005,1608630370.698,8215
1760006,1608630370.7,8215
1760007,1608630370.702,8216
1760008,1608630370.704,8217
1760009,1608630370.706,8218
1760010,1608630370.708,8219
1760011,1608630370.71,8220
1760012,1608630370.712,8221
1760013,1608630370.714,8223
1760014,1608630370.716,8224
1760015,1608630370.718,8225
1760016,1608630370.72,8225
1760017,1608630370.722,8226
1760018,1608630370.724,8226
1760019,1608630370.726,8226
1760020,1608630370.728,8226
1760021,1608630370.73,8225
1760022,1608630370.732,8224
1760023,1608630370.734,8223
1760024,1608630370.736,8222
1760025,1608630370.738,8220
1760026,1608630370.74,8219
1760027,1608630370.742,8217
1760028,1608630370.744,8215
1760029,1608630370.746,8213
1760030,1608630370.748,8211
1760031,1608630370.75,8209
1760032,1608630370.752,8207
1760033,1608630370.754,8204
1760034,1608630370.756,8202
1760035,1608630370.758,8200
1760036,1608630370.76,8198
1760037,1608630370.762,8197
1760038,1608630370.764,8195
1760039,1608630370.766,8194
1760040,1608630370.768,8193
1760041,1608630370.77,8192
1760042,1608630370.772,8191
1760043,1608630370.774,8191
1760044,1608630370.776,8190
1760045,1608630370.778,8190
1760046,1608630370.78,8189
1760047,1608630370.782,8189
1760048,1608630370.784,8189
1760049,1608630370.786,8189
1760050,1608630370.788,8188
1760051,1608630370.79,8188
1760052,1608630370.792,8188
1760053,1608630370.794,8187
1760054,1608630370.796,8187
1760055,1608630370.798,8187
1760056,1608630370.8,8187
1760057,1608630370.802,8187
1760058,1608630370.804,8186
1760059,1608630370.806,8186
1760060,1608630370.808,8186
1760061,1608630370.81,8186
1760062,1608630370.812,8186
1760063,1608630370.814,8186
1760064,1608630370.816,8186
1760065,1608630370.818,8187
1760066,1608630370.82,8188
1760067,1608630370.822,8190
1760068,1608630370.824,8192
1760069,1608630370.826,8195
1760070,1608630370.828,8199
1760071,1608630370.83,8205
1760072,1608630370.832,8210
1760073,1608630370.834,8217
1760074,1608630370.836,8223
1760075,1608630370.838,8228
1760076,1608630370.84,8231
1760077,1608630370.842,8232
1760078,1608630370.844,8230
1760079,1608630370.846,8222
1760080,1608630370.848,8211
1760081,1608630370.85,8195
1760082,1608630370.852,8177
1760083,1608630370.854,8157
1760084,1608630370.856,8136
1760085,1608630370.858,8116
1760086,1608630370.86,8098
1760087,1608630370.862,8084
1760088,1608630370.864,8072
1760089,1608630370.866,8064
1760090,1608630370.868,8059
1760091,1608630370.87,8058
1760092,1608630370.872,8058
1760093,1608630370.874,8060
1760094,1608630370.876,8064
1760095,1608630370.878,8070
1760096,1608630370.88,8077
1760097,1608630370.882,8085
1760098,1608630370.884,8095
1760099,1608630370.886,8105
1760100,1608630370.888,8115
1760101,1608630370.89,8125
1760102,1608630370.892,8135
1760103,1608630370.894,8143
1760104,1608630370.896,8151
1760105,1608630370.898,8157
1760106,1608630370.9,8163
1760107,1608630370.902,8168
1760108,1608630370.904,8173
1760109,1608630370.906,8177
1760110,1608630370.908,8180
1760111,1608630370.91,8183
1760112,1608630370.912,8186
1760113,1608630370.914,8188
1760114,1608630370.916,8189
1760115,1608630370.918,8190
1760116,1608630370.92,8191
1760117,1608630370.922,8192
1760118,1608630370.924,8192
1760119,1608630370.926,8192
1760120,1608630370.928,8192
1760121,1608630370.93,8192
1760122,1608630370.932,8193
1760123,1608630370.934,8193
1760124,1608630370.936,8193
1760125,1608630370.938,8193
1760126,1608630370.94,8193
1760127,1608630370.942,8193
1760128,1608630370.944,8193
1760129,1608630370.946,8193
1760130,1608630370.948,8193
1760131,1608630370.95,8193
1760132,1608630370.952,8193
1760133,1608630370.954,8193
1760134,1608630370.956,8194
1760135,1608630370.958,8194
1760136,1608630370.96,8194
1760137,1608630370.962,8194
1760138,1608630370.964,8195
1760139,1608630370.966,8195
1760140,1608630370.968,8196
1760141,1608630370.97,8196
1760142,1608630370.972,8197
1760143,1608630370.974,8197
1760144,1608630370.976,8198
1760145,1608630370.978,8198
1760146,1608630370.98,8199
1760147,1608630370.982,8200
1760148,1608630370.984,8201
1760149,1608630370.986,8202
1760150,1608630370.988,8203
1760151,1608630370.99,8205
1760152,1608630370.992,8206
1760153,1608630370.994,8208
1760154,1608630370.996,8209
1760155,1608630370.998,8211
1760156,1608630371.0,8213
1760157,1608630371.002,8215
1760158,1608630371.004,8217
1760159,1608630371.006,8218
1760160,1608630371.008,8220
1760161,1608630371.01,8222
1760162,1608630371.012,8223
1760163,1608630371.014,8225
1760164,1608630371.016,8226
1760165,1608630371.018,8228
1760166,1608630371.02,8229
1760167,1608630371.022,8231
1760168,1608630371.024,8232
1760169,1608630371.026,8233
1760170,1608630371.028,8234
1760171,1608630371.03,8234
1760172,1608630371.032,8235
1760173,1608630371.034,8235
1760174,1608630371.036,8235
1760175,1608630371.038,8235
1760176,1608630371.04,8235
1760177,1608630371.042,8235
1760178,1608630371.044,8234
1760179,1608630371.046,8234
1760180,1608630371.048,8233
1760181,1608630371.05,8232
1760182,1608630371.052,8231
1760183,1608630371.054,8230
1760184,1608630371.056,8229
1760185,1608630371.058,8228
1760186,1608630371.06,8227
1760187,1608630371.062,8226
1760188,1608630371.064,8224
1760189,1608630371.066,8223
1760190,1608630371.068,8222
1760191,1608630371.07,8220
1760192,1608630371.072,8219
1760193,1608630371.074,8218
1760194,1608630371.076,8216
1760195,1608630371.078,8216
1760196,1608630371.08,8215
1760197,1608630371.082,8214
1760198,1608630371.084,8214
1760199,1608630371.086,8214
1760200,1608630371.088,8214
1760201,1608630371.09,8215
1760202,1608630371.092,8215
1760203,1608630371.094,8216
1760204,1608630371.096,8217
1760205,1608630371.098,8218
1760206,1608630371.1,8219
1760207,1608630371.102,8221
1760208,1608630371.104,8222
1760209,1608630371.106,8223
1760210,1608630371.108,8224
1760211,1608630371.11,8225
1760212,1608630371.112,8225
1760213,1608630371.114,8225
1760214,1608630371.116,8225
1760215,1608630371.118,8225
1760216,1608630371.12,8224
1760217,1608630371.122,8223
1760218,1608630371.124,8222
1760219,1608630371.126,8221
1760220,1608630371.128,8219
1760221,1608630371.13,8218
1760222,1608630371.132,8216
1760223,1608630371.134,8214
1760224,1608630371.136,8212
1760225,1608630371.138,8211
1760226,1608630371.14,8209
1760227,1608630371.142,8207
1760228,1608630371.144,8205
1760229,1608630371.146,8203
1760230,1608630371.148,8202
1760231,1608630371.15,8200
1760232,1608630371.152,8199
1760233,1608630371.154,8198
1760234,1608630371.156,8198
1760235,1608630371.158,8197
1760236,1608630371.16,8197
1760237,1608630371.162,8196
1760238,1608630371.164,8196
1760239,1608630371.166,8196
1760240,1608630371.168,8196
1760241,1608630371.17,8196
1760242,1608630371.172,8196
1760243,1608630371.174,8196
1760244,1608630371.176,8195
1760245,1608630371.178,8195
1760246,1608630371.18,8195
1760247,1608630371.182,8194
1760248,1608630371.184,8194
1760249,1608630371.186,8193
1760250,1608630371.188,8192
1760251,1608630371.19,8191
1760252,1608630371.192,8190
1760253,1608630371.194,8190
1760254,1608630371.196,8189
1760255,1608630371.198,8188
1760256,1608630371.2,8188
1760257,1608630371.202,8188
1760258,1608630371.204,8188
1760259,1608630371.206,8188
1760260,1608630371.208,8189
1760261,1608630371.21,8190
1760262,1608630371.212,8191
1760263,1608630371.214,8194
1760264,1608630371.216,8197
1760265,1608630371.218,8202
1760266,1608630371.22,8207
1760267,1608630371.222,8213
1760268,1608630371.224,8220
1760269,1608630371.226,8226
1760270,1608630371.228,8230
1760271,1608630371.23,8233
1760272,1608630371.232,8233
1760273,1608630371.234,8229
1760274,1608630371.236,8220
1760275,1608630371.238,8208
1760276,1608630371.24,8191
1760277,1608630371.242,8172
1760278,1608630371.244,8152
1760279,1608630371.246,8131
1760280,1608630371.248,8112
1760281,1608630371.25,8095
1760282,1608630371.252,8081
1760283,1608630371.254,8070
1760284,1608630371.256,8063
1760285,1608630371.258,8058
1760286,1608630371.26,8057
1760287,1608630371.262,8057
1760288,1608630371.264,8059
1760289,1608630371.266,8063
1760290,1608630371.268,8069
1760291,1608630371.27,8076
1760292,1608630371.272,8085
1760293,1608630371.274,8094
1760294,1608630371.276,8104
1760295,1608630371.278,8114
1760296,1608630371.28,8124
1760297,1608630371.282,8133
1760298,1608630371.284,8141
1760299,1608630371.286,8149
1760300,1608630371.288,8155
1760301,1608630371.29,8161
1760302,1608630371.292,8166
1760303,1608630371.294,8170
1760304,1608630371.296,8174
1760305,1608630371.298,8177
1760306,1608630371.3,8180
1760307,1608630371.302,8182
1760308,1608630371.304,8183
1760309,1608630371.306,8185
1760310,1608630371.308,8185
1760311,1608630371.31,8186
1760312,1608630371.312,8186
1760313,1608630371.314,8186
1760314,1608630371.316,8186
1760315,1608630371.318,8186
1760316,1608630371.32,8186
1760317,1608630371.322,8186
1760318,1608630371.324,8186
1760319,1608630371.326,8186
1760320,1608630371.328,8186
1760321,1608630371.33,8186
1760322,1608630371.332,8185
1760323,1608630371.334,8185
1760324,1608630371.336,8185
1760325,1608630371.338,8184
1760326,1608630371.34,8184
1760327,1608630371.342,8184
1760328,1608630371.344,8183
1760329,1608630371.346,8183
1760330,1608630371.348,8183
1760331,1608630371.35,8183
1760332,1608630371.352,8183
1760333,1608630371.354,8184
1760334,1608630371.356,8184
1760335,1608630371.358,8184
1760336,1608630371.36,8184
1760337,1608630371.362,8185
1760338,1608630371.364,8185
1760339,1608630371.366,8186
1760340,1608630371.368,8187
1760341,1608630371.37,8187
1760342,1608630371.372,8188
1760343,1608630371.374,8189
1760344,1608630371.376,8190
1760345,1608630371.378,8191
1760346,1608630371.38,8193
1760347,1608630371.382,8194
1760348,1608630371.384,8196
1760349,1608630371.386,8198
1760350,1608630371.388,8199
1760351,1608630371.39,8201
1760352,1608630371.392,8203
1760353,1608630371.394,8205
1760354,1608630371.396,8207
1760355,1608630371.398,8209
1760356,1608630371.4,8211
1760357,1608630371.402,8212
1760358,1608630371.404,8214
1760359,1608630371.406,8216
1760360,1608630371.408,8218
1760361,1608630371.41,8219
1760362,1608630371.412,8221
1760363,1608630371.414,8222
1760364,1608630371.416,8223
1760365,1608630371.418,8225
1760366,1608630371.42,8226
1760367,1608630371.422,8227
1760368,1608630371.424,8227
1760369,1608630371.426,8228
1760370,1608630371.428,8228
1760371,1608630371.43,8228
1760372,1608630371.432,8228
1760373,1608630371.434,8228
1760374,1608630371.436,8228
1760375,1608630371.438,8227
1760376,1608630371.44,8227
1760377,1608630371.442,8226
1760378,1608630371.444,8225
1760379,1608630371.446,8224
1760380,1608630371.448,8223
1760381,1608630371.45,8222
1760382,1608630371.452,8221
1760383,1608630371.454,8220
1760384,1608630371.456,8219
1760385,1608630371.458,8218
1760386,1608630371.46,8217
1760387,1608630371.462,8216
1760388,1608630371.464,8215
1760389,1608630371.466,8214
1760390,1608630371.468,8213
1760391,1608630371.47,8212
1760392,1608630371.472,8212
1760393,1608630371.474,8212
1760394,1608630371.476,8212
1760395,1608630371.478,8212
1760396,1608630371.48,8213
1760397,1608630371.482,8214
1760398,1608630371.484,8215
1760399,1608630371.486,8217
1760400,1608630371.488,8218
1760401,1608630371.49,8219
1760402,1608630371.492,8221
1760403,1608630371.494,8222
1760404,1608630371.496,8223
1760405,1608630371.498,8224
1760406,1608630371.5,8225
1760407,1608630371.502,8225
1760408,1608630371.504,8225
1760409,1608630371.506,8225
1760410,1608630371.508,8225
1760411,1608630371.51,8224
1760412,1608630371.512,8223
1760413,1608630371.514,8222
1760414,1608630371.516,8220
1760415,1608630371.518,8219
1760416,1608630371.52,8217
1760417,1608630371.522,8215
1760418,1608630371.524,8214
1760419,1608630371.526,8212
1760420,1608630371.528,8210
1760421,1608630371.53,8208
1760422,1608630371.532,8206
1760423,1608630371.534,8203
1760424,1608630371.536,8201
1760425,1608630371.538,8199
1760426,1608630371.54,8198
1760427,1608630371.542,8196
1760428,1608630371.544,8195
1760429,1608630371.546,8193
1760430,1608630371.548,8192
1760431,1608630371.55,8192
1760432,1608630371.552,8191
1760433,1608630371.554,8190
1760434,1608630371.556,8190
1760435,1608630371.558,8190
1760436,1608630371.56,8189
1760437,1608630371.562,8189
1760438,1608630371.564,8189
1760439,1608630371.566,8189
1760440,1608630371.568,8189
1760441,1608630371.57,8189
1760442,1608630371.572,8188
1760443,1608630371.574,8188
1760444,1608630371.576,8188
1760445,1608630371.578,8188
1760446,1608630371.58,8188
1760447,1608630371.582,8187
1760448,1608630371.584,8187
1760449,1608630371.586,8187
1760450,1608630371.588,8187
1760451,1608630371.59,8187
1760452,1608630371.592,8188
1760453,1608630371.594,8188
1760454,1608630371.596,8189
1760455,1608630371.598,8190
1760456,1608630371.6,8191
1760457,1608630371.602,8193
1760458,1608630371.604,8196
1760459,1608630371.606,8200
1760460,1608630371.608,8204
1760461,1608630371.61,8210
1760462,1608630371.612,8216
1760463,1608630371.614,8222
1760464,1608630371.616,8228
1760465,1608630371.618,8232
1760466,1608630371.62,8234
1760467,1608630371.622,8233
1760468,1608630371.624,8227
1760469,1608630371.626,8218
1760470,1608630371.628,8204
1760471,1608630371.63,8187
1760472,1608630371.632,8168
1760473,1608630371.634,8147
1760474,1608630371.636,8127
1760475,1608630371.638,8108
1760476,1608630371.64,8092
1760477,1608630371.642,8080
1760478,1608630371.644,8070
1760479,1608630371.646,8063
1760480,1608630371.648,8060
1760481,1608630371.65,8059
1760482,1608630371.652,8060
1760483,1608630371.654,8063
1760484,1608630371.656,8067
1760485,1608630371.658,8074
1760486,1608630371.66,8081
1760487,1608630371.662,8090
1760488,1608630371.664,8100
1760489,1608630371.666,8110
1760490,1608630371.668,8121
1760491,1608630371.67,8131
1760492,1608630371.672,8140
1760493,1608630371.674,8148
1760494,1608630371.676,8155
1760495,1608630371.678,8161
1760496,1608630371.68,8167
1760497,1608630371.682,8172
1760498,1608630371.684,8176
1760499,1608630371.686,8180
1760500,1608630371.688,8183
1760501,1608630371.69,8186
1760502,1608630371.692,8188
1760503,1608630371.694,8190
1760504,1608630371.696,8191
1760505,1608630371.698,8192
1760506,1608630371.7,8192
1760507,1608630371.702,8193
1760508,1608630371.704,8193
1760509,1608630371.706,8193
1760510,1608630371.708,8193
1760511,1608630371.71,8193
1760512,1608630371.712,8193
1760513,1608630371.714,8193
1760514,1608630371.716,8193
1760515,1608630371.718,8193
1760516,1608630371.72,8193
1760517,1608630371.722,8193
1760518,1608630371.724,8193
1760519,1608630371.726,8193
1760520,1608630371.728,8193
1760521,1608630371.73,8193
1760522,1608630371.732,8193
1760523,1608630371.734,8194
1760524,1608630371.736,8194
1760525,1608630371.738,8194
1760526,1608630371.74,8194
1760527,1608630371.742,8194
1760528,1608630371.744,8195
1760529,1608630371.746,8195
1760530,1608630371.748,8195
1760531,1608630371.75,8196
1760532,1608630371.752,8196
1760533,1608630371.754,8197
1760534,1608630371.756,8198
1760535,1608630371.758,8199
1760536,1608630371.76,8200
1760537,1608630371.762,8201
1760538,1608630371.764,8202
1760539,1608630371.766,8203
1760540,1608630371.768,8205
1760541,1608630371.77,8206
1760542,1608630371.772,8208
1760543,1608630371.774,8209
1760544,1608630371.776,8211
1760545,1608630371.778,8213
1760546,1608630371.78,8214
1760547,1608630371.782,8216
1760548,1608630371.784,8218
1760549,1608630371.786,8219
1760550,1608630371.788,8221
1760551,1608630371.79,8223
1760552,1608630371.792,8224
1760553,1608630371.794,8226
1760554,1608630371.796,8227
1760555,1608630371.798,8229
1760556,1608630371.8,8230
1760557,1608630371.802,8231
1760558,1608630371.804,8232
1760559,1608630371.806,8233
1760560,1608630371.808,8233
1760561,1608630371.81,8234
1760562,1608630371.812,8234
1760563,1608630371.814,8235
1760564,1608630371.816,8235
1760565,1608630371.818,8235
1760566,1608630371.82,8235
1760567,1608630371.822,8234
1760568,1608630371.824,8234
1760569,1608630371.826,8233
1760570,1608630371.828,8233
1760571,1608630371.83,8232
1760572,1608630371.832,8231
1760573,1608630371.834,8230
1760574,1608630371.836,8229
1760575,1608630371.838,8228
1760576,1608630371.84,8227
1760577,1608630371.842,8226
1760578,1608630371.844,8225
1760579,1608630371.846,8224
1760580,1608630371.848,8222
1760581,1608630371.85,8221
1760582,1608630371.852,8220
1760583,1608630371.854,8218
1760584,1608630371.856,8217
1760585,1608630371.858,8216
1760586,1608630371.86,8215
1760587,1608630371.862,8215
1760588,1608630371.864,8215
1760589,1608630371.866,8215
1760590,1608630371.868,8215
1760591,1608630371.87,8216
1760592,1608630371.872,8217
1760593,1608630371.874,8218
1760594,1608630371.876,8220
1760595,1608630371.878,8221
1760596,1608630371.88,8222
1760597,1608630371.882,8223
1760598,1608630371.884,8224
1760599,1608630371.886,8225
1760600,1608630371.888,8226
1760601,1608630371.89,8226
1760602,1608630371.892,8227
1760603,1608630371.894,8227
1760604,1608630371.896,8226
1760605,1608630371.898,8226
1760606,1608630371.9,8225
1760607,1608630371.902,8224
1760608,1608630371.904,8222
1760609,1608630371.906,8221
1760610,1608630371.908,8219
1760611,1608630371.91,8218
1760612,1608630371.912,8216
1760613,1608630371.914,8214
1760614,1608630371.916,8212
1760615,1608630371.918,8210
1760616,1608630371.92,8208
1760617,1608630371.922,8206
1760618,1608630371.924,8204
1760619,1608630371.926,8202
1760620,1608630371.928,8200
1760621,1608630371.93,8198
1760622,1608630371.932,8197
1760623,1608630371.934,8195
1760624,1608630371.936,8194
1760625,1608630371.938,8193
1760626,1608630371.94,8192
1760627,1608630371.942,8191
1760628,1608630371.944,8191
1760629,1608630371.946,8190
1760630,1608630371.948,8190
1760631,1608630371.95,8189
1760632,1608630371.952,8189
1760633,1608630371.954,8189
1760634,1608630371.956,8188
1760635,1608630371.958,8188
1760636,1608630371.96,8188
1760637,1608630371.962,8187
1760638,1608630371.964,8187
1760639,1608630371.966,8187
1760640,1608630371.968,8187
1760641,1608630371.97,8187
1760642,1608630371.972,8187
1760643,1608630371.974,8187
1760644,1608630371.976,8187
1760645,1608630371.978,8187
1760646,1608630371.98,8187
1760647,1608630371.982,8187
1760648,1608630371.984,8187
1760649,1608630371.986,8188
1760650,1608630371.988,8188
1760651,1608630371.99,8189
1760652,1608630371.992,8191
1760653,1608630371.994,8194
1760654,1608630371.996,8198
1760655,1608630371.998,8203
1760656,1608630372.0,8208
1760657,1608630372.002,8215
1760658,1608630372.004,8221
1760659,1608630372.006,8227
1760660,1608630372.008,8231
1760661,1608630372.01,8232
1760662,1608630372.012,8231
1760663,1608630372.014,8225
1760664,1608630372.016,8215
1760665,1608630372.018,8200
1760666,1608630372.02,8182
1760667,1608630372.022,8163
1760668,1608630372.024,8142
1760669,1608630372.026,8122
1760670,1608630372.028,8103
1760671,1608630372.03,8088
1760672,1608630372.032,8076
1760673,1608630372.034,8067
1760674,1608630372.036,8061
1760675,1608630372.038,8058
1760676,1608630372.04,8057
1760677,1608630372.042,8058
1760678,1608630372.044,8061
1760679,1608630372.046,8066
1760680,1608630372.048,8073
1760681,1608630372.05,8081
1760682,1608630372.052,8090
1760683,1608630372.054,8100
1760684,1608630372.056,8111
1760685,1608630372.058,8121
1760686,1608630372.06,8131
1760687,1608630372.062,8140
1760688,1608630372.064,8148
1760689,1608630372.066,8155
1760690,1608630372.068,8161
1760691,1608630372.07,8166
1760692,1608630372.072,8171
1760693,1608630372.074,8175
1760694,1608630372.076,8178
1760695,1608630372.078,8181
1760696,1608630372.08,8184
1760697,1608630372.082,8186
1760698,1608630372.084,8187
1760699,1608630372.086,8188
1760700,1608630372.088,8189
1760701,1608630372.09,8190
1760702,1608630372.092,8190
1760703,1608630372.094,8190
1760704,1608630372.096,8190
1760705,1608630372.098,8191
1760706,1608630372.1,8191
1760707,1608630372.102,8191
1760708,1608630372.104,8191
1760709,1608630372.106,8191
1760710,1608630372.108,8190
1760711,1608630372.11,8190
1760712,1608630372.112,8190
1760713,1608630372.114,8190
1760714,1608630372.116,8190
1760715,1608630372.118,8190
1760716,1608630372.12,8190
1760717,1608630372.122,8190
1760718,1608630372.124,8190
1760719,1608630372.126,8190
1760720,1608630372.128,8190
1760721,1608630372.13,8190
1760722,1608630372.132,8190
1760723,1608630372.134,8191
1760724,1608630372.136,8191
1760725,1608630372.138,8191
1760726,1608630372.14,8192
1760727,1608630372.142,8192
1760728,1608630372.144,8193
1760729,1608630372.146,8194
1760730,1608630372.148,8195
1760731,1608630372.15,8196
1760732,1608630372.152,8197
1760733,1608630372.154,8198
1760734,1608630372.156,8199
1760735,1608630372.158,8201
1760736,1608630372.16,8202
1760737,1608630372.162,8203
1760738,1608630372.164,8205
1760739,1608630372.166,8207
1760740,1608630372.168,8208
1760741,1608630372.17,8210
1760742,1608630372.172,8212
1760743,1608630372.174,8213
1760744,1608630372.176,8215
1760745,1608630372.178,8217
1760746,1608630372.18,8218
1760747,1608630372.182,8220
1760748,1608630372.184,8222
1760749,1608630372.186,8223
1760750,1608630372.188,8225
1760751,1608630372.19,8226
1760752,1608630372.192,8227
1760753,1608630372.194,8229
1760754,1608630372.196,8230
1760755,1608630372.198,8230
1760756,1608630372.2,8231
1760757,1608630372.202,8231
1760758,1608630372.204,8232
1760759,1608630372.206,8232
1760760,1608630372.208,8232
1760761,1608630372.21,8232
1760762,1608630372.212,8231
1760763,1608630372.214,8231
1760764,1608630372.216,8230
1760765,1608630372.218,8230
1760766,1608630372.22,8229
1760767,1608630372.222,8228
1760768,1608630372.224,8227
1760769,1608630372.226,8226
1760770,1608630372.228,8225
1760771,1608630372.23,8224
1760772,1608630372.232,8223
1760773,1608630372.234,8222
1760774,1608630372.236,8221
1760775,1608630372.238,8220
1760776,1608630372.24,8218
1760777,1608630372.242,8217
1760778,1608630372.244,8216
1760779,1608630372.246,8215
1760780,1608630372.248,8214
1760781,1608630372.25,8213
1760782,1608630372.252,8213
1760783,1608630372.254,8213
1760784,1608630372.256,8213
1760785,1608630372.258,8213
1760786,1608630372.26,8214
1760787,1608630372.262,8215
1760788,1608630372.264,8216
1760789,1608630372.266,8217
1760790,1608630372.268,8218
1760791,1608630372.27,8220
1760792,1608630372.272,8221
1760793,1608630372.274,8222
1760794,1608630372.276,8223
1760795,1608630372.278,8224
1760796,1608630372.28,8225
1760797,1608630372.282,8225
1760798,1608630372.284,8225
1760799,1608630372.286,8224
1760800,1608630372.288,8224
1760801,1608630372.29,8223
1760802,1608630372.292,8221
1760803,1608630372.294,8220
1760804,1608630372.296,8218
1760805,1608630372.298,8216
1760806,1608630372.3,8214
1760807,1608630372.302,8212
1760808,1608630372.304,8210
1760809,1608630372.306,8208
1760810,1608630372.308,8206
1760811,1608630372.31,8204
1760812,1608630372.312,8201
1760813,1608630372.314,8199
1760814,1608630372.316,8197
1760815,1608630372.318,8196
1760816,1608630372.32,8194
1760817,1608630372.322,8193
1760818,1608630372.324,8191
1760819,1608630372.326,8190
1760820,1608630372.328,8190
1760821,1608630372.33,8189
1760822,1608630372.332,8188
1760823,1608630372.334,8188
1760824,1608630372.336,8188
1760825,1608630372.338,8187
1760826,1608630372.34,8187
1760827,1608630372.342,8187
1760828,1608630372.344,8186
1760829,1608630372.346,8186
1760830,1608630372.348,8186
1760831,1608630372.35,8186
1760832,1608630372.352,8186
1760833,1608630372.354,8186
1760834,1608630372.356,8186
1760835,1608630372.358,8186
1760836,1608630372.36,8186
1760837,1608630372.362,8186
1760838,1608630372.364,8186
1760839,1608630372.366,8186
1760840,1608630372.368,8186
1760841,1608630372.37,8186
1760842,1608630372.372,8187
1760843,1608630372.374,8187
1760844,1608630372.376,8188
1760845,1608630372.378,8189
1760846,1608630372.38,8191
1760847,1608630372.382,8193
1760848,1608630372.384,8197
1760849,1608630372.386,8201
1760850,1608630372.388,8207
1760851,1608630372.39,8213
1760852,1608630372.392,8219
1760853,1608630372.394,8225
1760854,1608630372.396,8230
1760855,1608630372.398,8233
1760856,1608630372.4,8233
1760857,1608630372.402,8229
1760858,1608630372.404,8220
1760859,1608630372.406,8208
1760860,1608630372.408,8191
1760861,1608630372.41,8173
1760862,1608630372.412,8152
1760863,1608630372.414,8132
1760864,1608630372.416,8112
1760865,1608630372.418,8095
1760866,1608630372.42,8082
1760867,1608630372.422,8071
1760868,1608630372.424,8064
1760869,1608630372.426,8059
1760870,1608630372.428,8057
1760871,1608630372.43,8058
1760872,1608630372.432,8060
1760873,1608630372.434,8064
1760874,1608630372.436,8070
1760875,1608630372.438,8077
1760876,1608630372.44,8086
1760877,1608630372.442,8096
1760878,1608630372.444,8106
1760879,1608630372.446,8116
1760880,1608630372.448,8126
1760881,1608630372.45,8136
1760882,1608630372.452,8144
1760883,1608630372.454,8152
1760884,1608630372.456,8158
1760885,1608630372.458,8164
1760886,1608630372.46,8169
1760887,1608630372.462,8173
1760888,1608630372.464,8177
1760889,1608630372.466,8180
1760890,1608630372.468,8183
1760891,1608630372.47,8185
1760892,1608630372.472,8187
1760893,1608630372.474,8188
1760894,1608630372.476,8189
1760895,1608630372.478,8190
1760896,1608630372.48,8191
1760897,1608630372.482,8191
1760898,1608630372.484,8191
1760899,1608630372.486,8191
1760900,1608630372.488,8191
1760901,1608630372.49,8191
1760902,1608630372.492,8191
1760903,1608630372.494,8191
1760904,1608630372.496,8191
1760905,1608630372.498,8191
1760906,1608630372.5,8191
1760907,1608630372.502,8191
1760908,1608630372.504,8191
1760909,1608630372.506,8191
1760910,1608630372.508,8191
1760911,1608630372.51,8191
1760912,1608630372.512,8191
1760913,1608630372.514,8191
1760914,1608630372.516,8191
1760915,1608630372.518,8191
1760916,1608630372.52,8191
1760917,1608630372.522,8191
1760918,1608630372.524,8192
1760919,1608630372.526,8192
1760920,1608630372.528,8193
1760921,1608630372.53,8193
1760922,1608630372.532,8194
1760923,1608630372.534,8194
1760924,1608630372.536,8195
1760925,1608630372.538,8196
1760926,1608630372.54,8197
1760927,1608630372.542,8198
1760928,1608630372.544,8199
1760929,1608630372.546,8200
1760930,1608630372.548,8201
1760931,1608630372.55,8202
1760932,1608630372.552,8204
1760933,1608630372.554,8206
1760934,1608630372.556,8207
1760935,1608630372.558,8209
1760936,1608630372.56,8211
1760937,1608630372.562,8213
1760938,1608630372.564,8215
1760939,1608630372.566,8216
1760940,1608630372.568,8218
1760941,1608630372.57,8220
1760942,1608630372.572,8221
1760943,1608630372.574,8223
1760944,1608630372.576,8225
1760945,1608630372.578,8226
1760946,1608630372.58,8227
1760947,1608630372.582,8229
1760948,1608630372.584,8230
1760949,1608630372.586,8230
1760950,1608630372.588,8231
1760951,1608630372.59,8232
1760952,1608630372.592,8232
1760953,1608630372.594,8232
1760954,1608630372.596,8232
1760955,1608630372.598,8232
1760956,1608630372.6,8232
1760957,1608630372.602,8231
1760958,1608630372.604,8231
1760959,1608630372.606,8230
1760960,1608630372.608,8230
1760961,1608630372.61,8229
1760962,1608630372.612,8228
1760963,1608630372.614,8227
1760964,1608630372.616,8226
1760965,1608630372.618,8225
1760966,1608630372.62,8224
1760967,1608630372.622,8223
1760968,1608630372.624,8222
1760969,1608630372.626,8220
1760970,1608630372.628,8219
1760971,1608630372.63,8218
1760972,1608630372.632,8217
1760973,1608630372.634,8216
1760974,1608630372.636,8215
1760975,1608630372.638,8214
1760976,1608630372.64,8213
1760977,1608630372.642,8213
1760978,1608630372.644,8212
1760979,1608630372.646,8212
1760980,1608630372.648,8213
1760981,1608630372.65,8214
1760982,1608630372.652,8215
1760983,1608630372.654,8216
1760984,1608630372.656,8217
1760985,1608630372.658,8218
1760986,1608630372.66,8220
1760987,1608630372.662,8221
1760988,1608630372.664,8222
1760989,1608630372.666,8223
1760990,1608630372.668,8224
1760991,1608630372.67,8225
1760992,1608630372.672,8225
1760993,1608630372.674,8225
1760994,1608630372.676,8225
1760995,1608630372.678,8224
1760996,1608630372.68,8223
1760997,1608630372.682,8221
1760998,1608630372.684,8220
1760999,1608630372.686,8219
1761000,1608630372.688,8217
1761001,1608630372.69,8215
1761002,1608630372.692,8213
1761003,1608630372.694,8211
1761004,1608630372.696,8209
1761005,1608630372.698,8207
1761006,1608630372.7,8205
1761007,1608630372.702,8203
1761008,1608630372.704,8201
1761009,1608630372.706,8199
1761010,1608630372.708,8198
1761011,1608630372.71,8196
1761012,1608630372.712,8195
1761013,1608630372.714,8194
1761014,1608630372.716,8193
1761015,1608630372.718,8192
1761016,1608630372.72,8191
1761017,1608630372.722,8190
1761018,1608630372.724,8190
1761019,1608630372.726,8190
1761020,1608630372.728,8189
1761021,1608630372.73,8189
1761022,1608630372.732,8189
1761023,1608630372.734,8189
1761024,1608630372.736,8189
1761025,1608630372.738,8188
1761026,1608630372.74,8188
1761027,1608630372.742,8188
1761028,1608630372.744,8187
1761029,1608630372.746,8187
1761030,1608630372.748,8187
1761031,1608630372.75,8187
1761032,1608630372.752,8186
1761033,1608630372.754,8186
1761034,1608630372.756,8186
1761035,1608630372.758,8186
1761036,1608630372.76,8186
1761037,1608630372.762,8186
1761038,1608630372.764,8187
1761039,1608630372.766,8187
1761040,1608630372.768,8189
1761041,1608630372.77,8191
1761042,1608630372.772,8194
1761043,1608630372.774,8198
1761044,1608630372.776,8203
1761045,1608630372.778,8208
1761046,1608630372.78,8215
1761047,1608630372.782,8221
1761048,1608630372.784,8227
1761049,1608630372.786,8231
1761050,1608630372.788,8233
1761051,1608630372.79,8232
1761052,1608630372.792,8226
1761053,1608630372.794,8216
1761054,1608630372.796,8201
1761055,1608630372.798,8184
1761056,1608630372.8,8164
1761057,1608630372.802,8143
1761058,1608630372.804,8123
1761059,1608630372.806,8104
1761060,1608630372.808,8089
1761061,1608630372.81,8076
1761062,1608630372.812,8067
1761063,1608630372.814,8060
1761064,1608630372.816,8057
1761065,1608630372.818,8057
1761066,1608630372.82,8058
1761067,1608630372.822,8061
1761068,1608630372.824,8065
1761069,1608630372.826,8072
1761070,1608630372.828,8080
1761071,1608630372.83,8089
1761072,1608630372.832,8099
1761073,1608630372.834,8110
1761074,1608630372.836,8120
1761075,1608630372.838,8130
1761076,1608630372.84,8140
1761077,1608630372.842,8148
1761078,1608630372.844,8155
1761079,1608630372.846,8161
1761080,1608630372.848,8167
1761081,1608630372.85,8172
1761082,1608630372.852,8176
1761083,1608630372.854,8179
1761084,1608630372.856,8182
1761085,1608630372.858,8185
1761086,1608630372.86,8187
1761087,1608630372.862,8188
1761088,1608630372.864,8189
1761089,1608630372.866,8190
1761090,1608630372.868,8191
1761091,1608630372.87,8191
1761092,1608630372.872,8191
1761093,1608630372.874,8191
1761094,1608630372.876,8191
1761095,1608630372.878,8191
1761096,1608630372.88,8191
1761097,1608630372.882,8191
1761098,1608630372.884,8191
1761099,1608630372.886,8191
1761100,1608630372.888,8190
1761101,1608630372.89,8190
1761102,1608630372.892,8190
1761103,1608630372.894,8190
1761104,1608630372.896,8190
1761105,1608630372.898,8190
1761106,1608630372.9,8190
1761107,1608630372.902,8190
1761108,1608630372.904,8190
1761109,1608630372.906,8190
1761110,1608630372.908,8191
1761111,1608630372.91,8191
1761112,1608630372.912,8191
1761113,1608630372.914,8191
1761114,1608630372.916,8192
1761115,1608630372.918,8192
1761116,1608630372.92,8193
1761117,1608630372.922,8194
1761118,1608630372.924,8195
1761119,1608630372.926,8195
1761120,1608630372.928,8197
1761121,1608630372.93,8197
1761122,1608630372.932,8199
1761123,1608630372.934,8200
1761124,1608630372.936,8201
1761125,1608630372.938,8202
1761126,1608630372.94,8203
1761127,1608630372.942,8205
1761128,1608630372.944,8206
1761129,1608630372.946,8208
1761130,1608630372.948,8209
1761131,1608630372.95,8211
1761132,1608630372.952,8213
1761133,1608630372.954,8215
1761134,1608630372.956,8217
1761135,1608630372.958,8218
1761136,1608630372.96,8220
1761137,1608630372.962,8222
1761138,1608630372.964,8223
1761139,1608630372.966,8225
1761140,1608630372.968,8226
1761141,1608630372.97,8227
1761142,1608630372.972,8229
1761143,1608630372.974,8229
1761144,1608630372.976,8230
1761145,1608630372.978,8231
1761146,1608630372.98,8231
1761147,1608630372.982,8231
1761148,1608630372.984,8232
1761149,1608630372.986,8231
1761150,1608630372.988,8231
1761151,1608630372.99,8231
1761152,1608630372.992,8231
1761153,1608630372.994,8230
1761154,1608630372.996,8229
1761155,1608630372.998,8229
1761156,1608630373.0,8228
1761157,1608630373.002,8227
1761158,1608630373.004,8226
1761159,1608630373.006,8225
1761160,1608630373.008,8224
1761161,1608630373.01,8223
1761162,1608630373.012,8222
1761163,1608630373.014,8220
1761164,1608630373.016,8219
1761165,1608630373.018,8218
1761166,1608630373.02,8216
1761167,1608630373.022,8215
1761168,1608630373.024,8214
1761169,1608630373.026,8213
1761170,1608630373.028,8213
1761171,1608630373.03,8212
1761172,1608630373.032,8212
1761173,1608630373.034,8212
1761174,1608630373.036,8212
1761175,1608630373.038,8213
1761176,1608630373.04,8214
1761177,1608630373.042,8215
1761178,1608630373.044,8216
1761179,1608630373.046,8217
1761180,1608630373.048,8219
1761181,1608630373.05,8220
1761182,1608630373.052,8221
1761183,1608630373.054,8222
1761184,1608630373.056,8223
1761185,1608630373.058,8223
1761186,1608630373.06,8224
1761187,1608630373.062,8224
1761188,1608630373.064,8224
1761189,1608630373.066,8224
1761190,1608630373.068,8223
1761191,1608630373.07,8222
1761192,1608630373.072,8220
1761193,1608630373.074,8219
1761194,1608630373.076,8217
1761195,1608630373.078,8215
1761196,1608630373.08,8213
1761197,1608630373.082,8211
1761198,1608630373.084,8209
1761199,1608630373.086,8207
1761200,1608630373.088,8205
1761201,1608630373.09,8203
1761202,1608630373.092,8201
1761203,1608630373.094,8199
1761204,1608630373.096,8197
1761205,1608630373.098,8195
1761206,1608630373.1,8193
1761207,1608630373.102,8192
1761208,1608630373.104,8191
1761209,1608630373.106,8190
1761210,1608630373.108,8189
1761211,1608630373.11,8188
1761212,1608630373.112,8187
1761213,1608630373.114,8187
1761214,1608630373.116,8186
1761215,1608630373.118,8186
1761216,1608630373.12,8186
1761217,1608630373.122,8185
1761218,1608630373.124,8185
1761219,1608630373.126,8185
1761220,1608630373.128,8185
1761221,1608630373.13,8185
1761222,1608630373.132,8185
1761223,1608630373.134,8185
1761224,1608630373.136,8185
1761225,1608630373.138,8185
1761226,1608630373.14,8185
1761227,1608630373.142,8185
1761228,1608630373.144,8184
1761229,1608630373.146,8184
1761230,1608630373.148,8184
1761231,1608630373.15,8185
1761232,1608630373.152,8185
1761233,1608630373.154,8186
1761234,1608630373.156,8187
1761235,1608630373.158,8188
1761236,1608630373.16,8190
1761237,1608630373.162,8193
1761238,1608630373.164,8197
1761239,1608630373.166,8201
1761240,1608630373.168,8207
1761241,1608630373.17,8213
1761242,1608630373.172,8219
1761243,1608630373.174,8225
1761244,1608630373.176,8229
1761245,1608630373.178,8231
1761246,1608630373.18,8229
1761247,1608630373.182,8223
1761248,1608630373.184,8213
1761249,1608630373.186,8198
1761250,1608630373.188,8181
1761251,1608630373.19,8161
1761252,1608630373.192,8140
1761253,1608630373.194,8120
1761254,1608630373.196,8102
1761255,1608630373.198,8086
1761256,1608630373.2,8074
1761257,1608630373.202,8065
1761258,1608630373.204,8060
1761259,1608630373.206,8057
1761260,1608630373.208,8056
1761261,1608630373.21,8058
1761262,1608630373.212,8061
1761263,1608630373.214,8065
1761264,1608630373.216,8072
1761265,1608630373.218,8080
1761266,1608630373.22,8089
1761267,1608630373.222,8098
1761268,1608630373.224,8109
1761269,1608630373.226,8119
1761270,1608630373.228,8128
1761271,1608630373.23,8137
1761272,1608630373.232,8145
1761273,1608630373.234,8153
1761274,1608630373.236,8159
1761275,1608630373.238,8164
1761276,1608630373.24,8169
1761277,1608630373.242,8173
1761278,1608630373.244,8177
1761279,1608630373.246,8179
1761280,1608630373.248,8182
1761281,1608630373.25,8184
1761282,1608630373.252,8185
1761283,1608630373.254,8186
1761284,1608630373.256,8187
1761285,1608630373.258,8188
1761286,1608630373.26,8188
1761287,1608630373.262,8188
1761288,1608630373.264,8188
1761289,1608630373.266,8188
1761290,1608630373.268,8188
1761291,1608630373.27,8188
1761292,1608630373.272,8189
1761293,1608630373.274,8189
1761294,1608630373.276,8189
1761295,1608630373.278,8189
1761296,1608630373.28,8189
1761297,1608630373.282,8189
1761298,1608630373.284,8189
1761299,1608630373.286,8189
1761300,1608630373.288,8189
1761301,1608630373.29,8189
1761302,1608630373.292,8190
1761303,1608630373.294,8190
1761304,1608630373.296,8190
1761305,1608630373.298,8190
1761306,1608630373.3,8190
1761307,1608630373.302,8191
1761308,1608630373.304,8191
1761309,1608630373.306,8191
1761310,1608630373.308,8192
1761311,1608630373.31,8192
1761312,1608630373.312,8193
1761313,1608630373.314,8194
1761314,1608630373.316,8195
1761315,1608630373.318,8196
1761316,1608630373.32,8197
1761317,1608630373.322,8198
1761318,1608630373.324,8200
1761319,1608630373.326,8201
1761320,1608630373.328,8202
1761321,1608630373.33,8204
1761322,1608630373.332,8206
1761323,1608630373.334,8207
1761324,1608630373.336,8209
1761325,1608630373.338,8211
1761326,1608630373.34,8213
1761327,1608630373.342,8215
1761328,1608630373.344,8216
1761329,1608630373.346,8218
1761330,1608630373.348,8220
1761331,1608630373.35,8221
1761332,1608630373.352,8223
1761333,1608630373.354,8225
1761334,1608630373.356,8226
1761335,1608630373.358,8227
1761336,1608630373.36,8229
1761337,1608630373.362,8230
1761338,1608630373.364,8231
1761339,1608630373.366,8232
1761340,1608630373.368,8232
1761341,1608630373.37,8232
1761342,1608630373.372,8233
1761343,1608630373.374,8233
1761344,1608630373.376,8233
1761345,1608630373.378,8232
1761346,1608630373.38,8232
1761347,1608630373.382,8232
1761348,1608630373.384,8231
1761349,1608630373.386,8230
1761350,1608630373.388,8229
1761351,1608630373.39,8229
1761352,1608630373.392,8228
1761353,1608630373.394,8227
1761354,1608630373.396,8226
1761355,1608630373.398,8225
1761356,1608630373.4,8223
1761357,1608630373.402,8222
1761358,1608630373.404,8221
1761359,1608630373.406,8219
1761360,1608630373.408,8218
1761361,1608630373.41,8217
1761362,1608630373.412,8216
1761363,1608630373.414,8214
1761364,1608630373.416,8214
1761365,1608630373.418,8213
1761366,1608630373.42,8212
1761367,1608630373.422,8212
1761368,1608630373.424,8212
1761369,1608630373.426,8213
1761370,1608630373.428,8213
1761371,1608630373.43,8214
1761372,1608630373.432,8215
1761373,1608630373.434,8216
1761374,1608630373.436,8217
1761375,1608630373.438,8219
1761376,1608630373.44,8220
1761377,1608630373.442,8221
1761378,1608630373.444,8222
1761379,1608630373.446,8222
1761380,1608630373.448,8223
1761381,1608630373.45,8223
1761382,1608630373.452,8224
1761383,1608630373.454,8223
1761384,1608630373.456,8223
1761385,1608630373.458,8222
1761386,1608630373.46,8221
1761387,1608630373.462,8219
1761388,1608630373.464,8218
1761389,1608630373.466,8216
1761390,1608630373.468,8214
1761391,1608630373.47,8212
1761392,1608630373.472,8210
1761393,1608630373.474,8208
1761394,1608630373.476,8206
1761395,1608630373.478,8204
1761396,1608630373.48,8201
1761397,1608630373.482,8199
1761398,1608630373.484,8197
1761399,1608630373.486,8195
1761400,1608630373.488,8194
1761401,1608630373.49,8193
1761402,1608630373.492,8191
1761403,1608630373.494,8190
1761404,1608630373.496,8189
1761405,1608630373.498,8189
1761406,1608630373.5,8188
1761407,1608630373.502,8187
1761408,1608630373.504,8187
1761409,1608630373.506,8187
1761410,1608630373.508,8186
1761411,1608630373.51,8186
1761412,1608630373.512,8186
1761413,1608630373.514,8186
1761414,1608630373.516,8185
1761415,1608630373.518,8185
1761416,1608630373.52,8185
1761417,1608630373.522,8185
1761418,1608630373.524,8185
1761419,1608630373.526,8185
1761420,1608630373.528,8185
1761421,1608630373.53,8184
1761422,1608630373.532,8184
1761423,1608630373.534,8184
1761424,1608630373.536,8184
1761425,1608630373.538,8185
1761426,1608630373.54,8185
1761427,1608630373.542,8185
1761428,1608630373.544,8186
1761429,1608630373.546,8187
1761430,1608630373.548,8189
1761431,1608630373.55,8191
1761432,1608630373.552,8194
1761433,1608630373.554,8198
1761434,1608630373.556,8203
1761435,1608630373.558,8209
1761436,1608630373.56,8215
1761437,1608630373.562,8221
1761438,1608630373.564,8227
1761439,1608630373.566,8230
1761440,1608630373.568,8231
1761441,1608630373.57,8229
1761442,1608630373.572,8223
1761443,1608630373.574,8212
1761444,1608630373.576,8196
1761445,1608630373.578,8178
1761446,1608630373.58,8158
1761447,1608630373.582,8138
1761448,1608630373.584,8118
1761449,1608630373.586,8100
1761450,1608630373.588,8085
1761451,1608630373.59,8073
1761452,1608630373.592,8065
1761453,1608630373.594,8059
1761454,1608630373.596,8057
1761455,1608630373.598,8057
1761456,1608630373.6,8059
1761457,1608630373.602,8062
1761458,1608630373.604,8067
1761459,1608630373.606,8074
1761460,1608630373.608,8082
1761461,1608630373.61,8091
1761462,1608630373.612,8100
1761463,1608630373.614,8110
1761464,1608630373.616,8120
1761465,1608630373.618,8130
1761466,1608630373.62,8138
1761467,1608630373.622,8146
1761468,1608630373.624,8153
1761469,1608630373.626,8159
1761470,1608630373.628,8165
1761471,1608630373.63,8169
1761472,1608630373.632,8173
1761473,1608630373.634,8177
1761474,1608630373.636,8180
1761475,1608630373.638,8182
1761476,1608630373.64,8184
1761477,1608630373.642,8185
1761478,1608630373.644,8186
1761479,1608630373.646,8187
1761480,1608630373.648,8188
1761481,1608630373.65,8188
1761482,1608630373.652,8188
1761483,1608630373.654,8189
1761484,1608630373.656,8189
1761485,1608630373.658,8189
1761486,1608630373.66,8189
1761487,1608630373.662,8189
1761488,1608630373.664,8189
1761489,1608630373.666,8189
1761490,1608630373.668,8189
1761491,1608630373.67,8189
1761492,1608630373.672,8189
1761493,1608630373.674,8189
1761494,1608630373.676,8190
1761495,1608630373.678,8190
1761496,1608630373.68,8190
1761497,1608630373.682,8190
1761498,1608630373.684,8190
1761499,1608630373.686,8190
1761500,1608630373.688,8190
1761501,1608630373.69,8191
1761502,1608630373.692,8191
1761503,1608630373.694,8192
1761504,1608630373.696,8192
1761505,1608630373.698,8193
1761506,1608630373.7,8194
1761507,1608630373.702,8194
1761508,1608630373.704,8195
1761509,1608630373.706,8196
1761510,1608630373.708,8197
1761511,1608630373.71,8198
1761512,1608630373.712,8199
1761513,1608630373.714,8200
1761514,1608630373.716,8201
1761515,1608630373.718,8203
1761516,1608630373.72,8204
1761517,1608630373.722,8206
1761518,1608630373.724,8208
1761519,1608630373.726,8209
1761520,1608630373.728,8211
1761521,1608630373.73,8213
1761522,1608630373.732,8215
1761523,1608630373.734,8216
1761524,1608630373.736,8218
1761525,1608630373.738,8220
1761526,1608630373.74,8221
1761527,1608630373.742,8223
1761528,1608630373.744,8225
1761529,1608630373.746,8226
1761530,1608630373.748,8227
1761531,1608630373.75,8229
1761532,1608630373.752,8230
1761533,1608630373.754,8231
1761534,1608630373.756,8231
1761535,1608630373.758,8232
1761536,1608630373.76,8232
1761537,1608630373.762,8232
1761538,1608630373.764,8232
1761539,1608630373.766,8232
1761540,1608630373.768,8232
1761541,1608630373.77,8232
1761542,1608630373.772,8231
1761543,1608630373.774,8230
1761544,1608630373.776,8229
1761545,1608630373.778,8229
1761546,1608630373.78,8227
1761547,1608630373.782,8226
1761548,1608630373.784,8225
1761549,1608630373.786,8224
1761550,1608630373.788,8223
1761551,1608630373.79,8222
1761552,1608630373.792,8221
1761553,1608630373.794,8219
1761554,1608630373.796,8218
1761555,1608630373.798,8217
1761556,1608630373.8,8215
1761557,1608630373.802,8214
1761558,1608630373.804,8213
1761559,1608630373.806,8212
1761560,1608630373.808,8211
1761561,1608630373.81,8211
1761562,1608630373.812,8211
1761563,1608630373.814,8211
1761564,1608630373.816,8211
1761565,1608630373.818,8212
1761566,1608630373.82,8213
1761567,1608630373.822,8214
1761568,1608630373.824,8215
1761569,1608630373.826,8216
1761570,1608630373.828,8218
1761571,1608630373.83,8219
1761572,1608630373.832,8220
1761573,1608630373.834,8221
1761574,1608630373.836,8221
1761575,1608630373.838,8222
1761576,1608630373.84,8222
1761577,1608630373.842,8223
1761578,1608630373.844,8222
1761579,1608630373.846,8222
1761580,1608630373.848,8221
1761581,1608630373.85,8220
1761582,1608630373.852,8218
1761583,1608630373.854,8217
1761584,1608630373.856,8215
1761585,1608630373.858,8213
1761586,1608630373.86,8211
1761587,1608630373.862,8210
1761588,1608630373.864,8208
1761589,1608630373.866,8205
1761590,1608630373.868,8203
1761591,1608630373.87,8201
1761592,1608630373.872,8199
1761593,1608630373.874,8197
1761594,1608630373.876,8195
1761595,1608630373.878,8194
1761596,1608630373.88,8192
1761597,1608630373.882,8191
1761598,1608630373.884,8190
1761599,1608630373.886,8189
1761600,1608630373.888,8188
1761601,1608630373.89,8187
1761602,1608630373.892,8186
1761603,1608630373.894,8186
1761604,1608630373.896,8185
1761605,1608630373.898,8185
1761606,1608630373.9,8185
1761607,1608630373.902,8184
1761608,1608630373.904,8184
1761609,1608630373.906,8184
1761610,1608630373.908,8184
1761611,1608630373.91,8184
1761612,1608630373.912,8184
1761613,1608630373.914,8183
1761614,1608630373.916,8183
1761615,1608630373.918,8183
1761616,1608630373.92,8183
1761617,1608630373.922,8183
1761618,1608630373.924,8183
1761619,1608630373.926,8183
1761620,1608630373.928,8183
1761621,1608630373.93,8183
1761622,1608630373.932,8184
1761623,1608630373.934,8184
1761624,1608630373.936,8185
1761625,1608630373.938,8186
1761626,1608630373.94,8189
1761627,1608630373.942,8192
1761628,1608630373.944,8196
1761629,1608630373.946,8201
1761630,1608630373.948,8207
1761631,1608630373.95,8213
1761632,1608630373.952,8219
1761633,1608630373.954,8225
1761634,1608630373.956,8228
1761635,1608630373.958,8230
1761636,1608630373.96,8227
1761637,1608630373.962,8220
1761638,1608630373.964,8209
1761639,1608630373.966,8194
1761640,1608630373.968,8175
1761641,1608630373.97,8155
1761642,1608630373.972,8134
1761643,1608630373.974,8114
1761644,1608630373.976,8097
1761645,1608630373.978,8082
1761646,1608630373.98,8071
1761647,1608630373.982,8062
1761648,1608630373.984,8058
1761649,1608630373.986,8055
1761650,1608630373.988,8056
1761651,1608630373.99,8058
1761652,1608630373.992,8062
1761653,1608630373.994,8067
1761654,1608630373.996,8074
1761655,1608630373.998,8082
1761656,1608630374.0,8091
1761657,1608630374.002,8101
1761658,1608630374.004,8111
1761659,1608630374.006,8121
1761660,1608630374.008,8130
1761661,1608630374.01,8139
1761662,1608630374.012,8147
1761663,1608630374.014,8153
1761664,1608630374.016,8159
1761665,1608630374.018,8165
1761666,1608630374.02,8169
1761667,1608630374.022,8173
1761668,1608630374.024,8176
1761669,1608630374.026,8179
1761670,1608630374.028,8182
1761671,1608630374.03,8184
1761672,1608630374.032,8185
1761673,1608630374.034,8186
1761674,1608630374.036,8187
1761675,1608630374.038,8187
1761676,1608630374.04,8188
1761677,1608630374.042,8188
1761678,1608630374.044,8189
1761679,1608630374.046,8189
1761680,1608630374.048,8189
1761681,1608630374.05,8189
1761682,1608630374.052,8190
1761683,1608630374.054,8190
1761684,1608630374.056,8190
1761685,1608630374.058,8190
1761686,1608630374.06,8190
1761687,1608630374.062,8190
1761688,1608630374.064,8190
1761689,1608630374.066,8190
1761690,1608630374.068,8190
1761691,1608630374.07,8190
1761692,1608630374.072,8190
1761693,1608630374.074,8191
1761694,1608630374.076,8191
1761695,1608630374.078,8191
1761696,1608630374.08,8191
1761697,1608630374.082,8192
1761698,1608630374.084,8192
1761699,1608630374.086,8193
1761700,1608630374.088,8193
1761701,1608630374.09,8194
1761702,1608630374.092,8194
1761703,1608630374.094,8195
1761704,1608630374.096,8196
1761705,1608630374.098,8197
1761706,1608630374.1,8198
1761707,1608630374.102,8199
1761708,1608630374.104,8200
1761709,1608630374.106,8201
1761710,1608630374.108,8203
1761711,1608630374.11,8204
1761712,1608630374.112,8206
1761713,1608630374.114,8208
1761714,1608630374.116,8209
1761715,1608630374.118,8211
1761716,1608630374.12,8213
1761717,1608630374.122,8215
1761718,1608630374.124,8216
1761719,1608630374.126,8218
1761720,1608630374.128,8220
1761721,1608630374.13,8222
1761722,1608630374.132,8223
1761723,1608630374.134,8225
1761724,1608630374.136,8226
1761725,1608630374.138,8228
1761726,1608630374.14,8229
1761727,1608630374.142,8230
1761728,1608630374.144,8231
1761729,1608630374.146,8231
1761730,1608630374.148,8232
1761731,1608630374.15,8232
1761732,1608630374.152,8232
1761733,1608630374.154,8232
1761734,1608630374.156,8232
1761735,1608630374.158,8232
1761736,1608630374.16,8232
1761737,1608630374.162,8232
1761738,1608630374.164,8231
1761739,1608630374.166,8230
1761740,1608630374.168,8229
1761741,1608630374.17,8228
1761742,1608630374.172,8227
1761743,1608630374.174,8226
1761744,1608630374.176,8225
1761745,1608630374.178,8224
1761746,1608630374.18,8223
1761747,1608630374.182,8221
1761748,1608630374.184,8220
1761749,1608630374.186,8219
1761750,1608630374.188,8217
1761751,1608630374.19,8216
1761752,1608630374.192,8215
1761753,1608630374.194,8214
1761754,1608630374.196,8213
1761755,1608630374.198,8212
1761756,1608630374.2,8212
1761757,1608630374.202,8212
1761758,1608630374.204,8212
1761759,1608630374.206,8213
1761760,1608630374.208,8214
1761761,1608630374.21,8215
1761762,1608630374.212,8216
1761763,1608630374.214,8217
1761764,1608630374.216,8218
1761765,1608630374.218,8219
1761766,1608630374.22,8220
1761767,1608630374.222,8221
1761768,1608630374.224,8222
1761769,1608630374.226,8223
1761770,1608630374.228,8223
1761771,1608630374.23,8224
1761772,1608630374.232,8224
1761773,1608630374.234,8223
1761774,1608630374.236,8223
1761775,1608630374.238,8222
1761776,1608630374.24,8221
1761777,1608630374.242,8219
1761778,1608630374.244,8218
1761779,1608630374.246,8216
1761780,1608630374.248,8214
1761781,1608630374.25,8212
1761782,1608630374.252,8210
1761783,1608630374.254,8208
1761784,1608630374.256,8206
1761785,1608630374.258,8204
1761786,1608630374.26,8202
1761787,1608630374.262,8199
1761788,1608630374.264,8197
1761789,1608630374.266,8195
1761790,1608630374.268,8194
1761791,1608630374.27,8193
1761792,1608630374.272,8191
1761793,1608630374.274,8190
1761794,1608630374.276,8189
1761795,1608630374.278,8189
1761796,1608630374.28,8188
1761797,1608630374.282,8188
1761798,1608630374.284,8187
1761799,1608630374.286,8187
1761800,1608630374.288,8187
1761801,1608630374.29,8187
1761802,1608630374.292,8186
1761803,1608630374.294,8186
1761804,1608630374.296,8186
1761805,1608630374.298,8186
1761806,1608630374.3,8185
1761807,1608630374.302,8185
1761808,1608630374.304,8185
1761809,1608630374.306,8185
1761810,1608630374.308,8185
1761811,1608630374.31,8185
1761812,1608630374.312,8185
1761813,1608630374.314,8185
1761814,1608630374.316,8185
1761815,1608630374.318,8185
1761816,1608630374.32,8185
1761817,1608630374.322,8185
1761818,1608630374.324,8186
1761819,1608630374.326,8187
1761820,1608630374.328,8189
1761821,1608630374.33,8191
1761822,1608630374.332,8195
1761823,1608630374.334,8199
1761824,1608630374.336,8205
1761825,1608630374.338,8211
1761826,1608630374.34,8217
1761827,1608630374.342,8223
1761828,1608630374.344,8228
1761829,1608630374.346,8232
1761830,1608630374.348,8232
1761831,1608630374.35,8229
1761832,1608630374.352,8221
1761833,1608630374.354,8209
1761834,1608630374.356,8193
1761835,1608630374.358,8174
1761836,1608630374.36,8154
1761837,1608630374.362,8133
1761838,1608630374.364,8113
1761839,1608630374.366,8096
1761840,1608630374.368,8082
1761841,1608630374.37,8071
1761842,1608630374.372,8063
1761843,1608630374.374,8058
1761844,1608630374.376,8057
1761845,1608630374.378,8057
1761846,1608630374.38,8059
1761847,1608630374.382,8063
1761848,1608630374.384,8069
1761849,1608630374.386,8076
1761850,1608630374.388,8084
1761851,1608630374.39,8094
1761852,1608630374.392,8104
1761853,1608630374.394,8114
1761854,1608630374.396,8123
1761855,1608630374.398,8133
1761856,1608630374.4,8141
1761857,1608630374.402,8148
1761858,1608630374.404,8155
1761859,1608630374.406,8161
1761860,1608630374.408,8166
1761861,1608630374.41,8171
1761862,1608630374.412,8175
1761863,1608630374.414,8178
1761864,1608630374.416,8181
1761865,1608630374.418,8184
1761866,1608630374.42,8186
1761867,1608630374.422,8187
1761868,1608630374.424,8188
1761869,1608630374.426,8189
1761870,1608630374.428,8190
1761871,1608630374.43,8190
1761872,1608630374.432,8190
1761873,1608630374.434,8191
1761874,1608630374.436,8191
1761875,1608630374.438,8191
1761876,1608630374.44,8191
1761877,1608630374.442,8191
1761878,1608630374.444,8191
1761879,1608630374.446,8191
1761880,1608630374.448,8191
1761881,1608630374.45,8190
1761882,1608630374.452,8190
1761883,1608630374.454,8190
1761884,1608630374.456,8190
1761885,1608630374.458,8190
1761886,1608630374.46,8190
1761887,1608630374.462,8190
1761888,1608630374.464,8190
1761889,1608630374.466,8191
1761890,1608630374.468,8191
1761891,1608630374.47,8191
1761892,1608630374.472,8191
1761893,1608630374.474,8192
1761894,1608630374.476,8193
1761895,1608630374.478,8193
1761896,1608630374.48,8194
1761897,1608630374.482,8194
1761898,1608630374.484,8195
1761899,1608630374.486,8196
1761900,1608630374.488,8197
1761901,1608630374.49,8198
1761902,1608630374.492,8200
1761903,1608630374.494,8201
1761904,1608630374.496,8202
1761905,1608630374.498,8204
1761906,1608630374.5,8205
1761907,1608630374.502,8206
1761908,1608630374.504,8208
1761909,1608630374.506,8209
1761910,1608630374.508,8211
1761911,1608630374.51,8213
1761912,1608630374.512,8214
1761913,1608630374.514,8216
1761914,1608630374.516,8218
1761915,1608630374.518,8220
1761916,1608630374.52,8222
1761917,1608630374.522,8224
1761918,1608630374.524,8225
1761919,1608630374.526,8227
1761920,1608630374.528,8228
1761921,1608630374.53,8229
1761922,1608630374.532,8231
1761923,1608630374.534,8231
1761924,1608630374.536,8232
1761925,1608630374.538,8233
1761926,1608630374.54,8233
1761927,1608630374.542,8233
1761928,1608630374.544,8233
1761929,1608630374.546,8233
1761930,1608630374.548,8233
1761931,1608630374.55,8233
1761932,1608630374.552,8232
1761933,1608630374.554,8232
1761934,1608630374.556,8231
1761935,1608630374.558,8230
1761936,1608630374.56,8229
1761937,1608630374.562,8228
1761938,1608630374.564,8227
1761939,1608630374.566,8226
1761940,1608630374.568,8225
1761941,1608630374.57,8223
1761942,1608630374.572,8222
1761943,1608630374.574,8221
1761944,1608630374.576,8219
1761945,1608630374.578,8218
1761946,1608630374.58,8217
1761947,1608630374.582,8216
1761948,1608630374.584,8215
1761949,1608630374.586,8214
1761950,1608630374.588,8213
1761951,1608630374.59,8213
1761952,1608630374.592,8213
1761953,1608630374.594,8213
1761954,1608630374.596,8213
1761955,1608630374.598,8214
1761956,1608630374.6,8215
1761957,1608630374.602,8216
1761958,1608630374.604,8217
1761959,1608630374.606,8218
1761960,1608630374.608,8219
1761961,1608630374.61,8220
1761962,1608630374.612,8222
1761963,1608630374.614,8222
1761964,1608630374.616,8223
1761965,1608630374.618,8224
1761966,1608630374.62,8224
1761967,1608630374.622,8224
1761968,1608630374.624,8224
1761969,1608630374.626,8224
1761970,1608630374.628,8223
1761971,1608630374.63,8222
1761972,1608630374.632,8220
1761973,1608630374.634,8219
1761974,1608630374.636,8217
1761975,1608630374.638,8215
1761976,1608630374.64,8213
1761977,1608630374.642,8211
1761978,1608630374.644,8209
1761979,1608630374.646,8207
1761980,1608630374.648,8205
1761981,1608630374.65,8203
1761982,1608630374.652,8201
1761983,1608630374.654,8199
1761984,1608630374.656,8197
1761985,1608630374.658,8196
1761986,1608630374.66,8194
1761987,1608630374.662,8193
1761988,1608630374.664,8191
1761989,1608630374.666,8190
1761990,1608630374.668,8189
1761991,1608630374.67,8189
1761992,1608630374.672,8188
1761993,1608630374.674,8187
1761994,1608630374.676,8187
1761995,1608630374.678,8187
1761996,1608630374.68,8186
1761997,1608630374.682,8186
1761998,1608630374.684,8186
1761999,1608630374.686,8186
1762000,1608630374.688,8185
1762001,1608630374.69,8185
1762002,1608630374.692,8185
1762003,1608630374.694,8185
1762004,1608630374.696,8185
1762005,1608630374.698,8185
1762006,1608630374.7,8185
1762007,1608630374.702,8185
1762008,1608630374.704,8185
1762009,1608630374.706,8185
1762010,1608630374.708,8185
1762011,1608630374.71,8185
1762012,1608630374.712,8185
1762013,1608630374.714,8186
1762014,1608630374.716,8187
1762015,1608630374.718,8189
1762016,1608630374.72,8191
1762017,1608630374.722,8195
1762018,1608630374.724,8199
1762019,1608630374.726,8204
1762020,1608630374.728,8210
1762021,1608630374.73,8217
1762022,1608630374.732,8223
1762023,1608630374.734,8228
1762024,1608630374.736,8231
1762025,1608630374.738,8232
1762026,1608630374.74,8229
1762027,1608630374.742,8222
1762028,1608630374.744,8210
1762029,1608630374.746,8194
1762030,1608630374.748,8175
1762031,1608630374.75,8155
1762032,1608630374.752,8134
1762033,1608630374.754,8114
1762034,1608630374.756,8096
1762035,1608630374.758,8082
1762036,1608630374.76,8071
1762037,1608630374.762,8063
1762038,1608630374.764,8058
1762039,1608630374.766,8056
1762040,1608630374.768,8056
1762041,1608630374.77,8059
1762042,1608630374.772,8062
1762043,1608630374.774,8068
1762044,1608630374.776,8075
1762045,1608630374.778,8083
1762046,1608630374.78,8093
1762047,1608630374.782,8102
1762048,1608630374.784,8113
1762049,1608630374.786,8122
1762050,1608630374.788,8132
1762051,1608630374.79,8140
1762052,1608630374.792,8148
1762053,1608630374.794,8154
1762054,1608630374.796,8160
1762055,1608630374.798,8166
1762056,1608630374.8,8170
1762057,1608630374.802,8174
1762058,1608630374.804,8178
1762059,1608630374.806,8181
1762060,1608630374.808,8183
1762061,1608630374.81,8185
1762062,1608630374.812,8187
1762063,1608630374.814,8188
1762064,1608630374.816,8189
1762065,1608630374.818,8189
1762066,1608630374.82,8190
1762067,1608630374.822,8190
1762068,1608630374.824,8190
1762069,1608630374.826,8190
1762070,1608630374.828,8190
1762071,1608630374.83,8190
1762072,1608630374.832,8190
1762073,1608630374.834,8190
1762074,1608630374.836,8190
1762075,1608630374.838,8190
1762076,1608630374.84,8190
1762077,1608630374.842,8190
1762078,1608630374.844,8190
1762079,1608630374.846,8190
1762080,1608630374.848,8190
1762081,1608630374.85,8190
1762082,1608630374.852,8190
1762083,1608630374.854,8190
1762084,1608630374.856,8190
1762085,1608630374.858,8190
1762086,1608630374.86,8190
1762087,1608630374.862,8190
1762088,1608630374.864,8190
1762089,1608630374.866,8191
1762090,1608630374.868,8191
1762091,1608630374.87,8192
1762092,1608630374.872,8193
1762093,1608630374.874,8194
1762094,1608630374.876,8195
1762095,1608630374.878,8196
1762096,1608630374.88,8197
1762097,1608630374.882,8198
1762098,1608630374.884,8200
1762099,1608630374.886,8201
1762100,1608630374.888,8202
1762101,1608630374.89,8204
1762102,1608630374.892,8206
1762103,1608630374.894,8207
1762104,1608630374.896,8209
1762105,1608630374.898,8211
1762106,1608630374.9,8213
1762107,1608630374.902,8215
1762108,1608630374.904,8216
1762109,1608630374.906,8218
1762110,1608630374.908,8220
1762111,1608630374.91,8222
1762112,1608630374.912,8223
1762113,1608630374.914,8225
1762114,1608630374.916,8226
1762115,1608630374.918,8227
1762116,1608630374.92,8228
1762117,1608630374.922,8229
1762118,1608630374.924,8230
1762119,1608630374.926,8231
1762120,1608630374.928,8231
1762121,1608630374.93,8231
1762122,1608630374.932,8232
1762123,1608630374.934,8232
1762124,1608630374.936,8231
1762125,1608630374.938,8231
1762126,1608630374.94,8231
1762127,1608630374.942,8230
1762128,1608630374.944,8230
1762129,1608630374.946,8229
1762130,1608630374.948,8228
1762131,1608630374.95,8227
1762132,1608630374.952,8226
1762133,1608630374.954,8225
1762134,1608630374.956,8223
1762135,1608630374.958,8222
1762136,1608630374.96,8221
1762137,1608630374.962,8220
1762138,1608630374.964,8219
1762139,1608630374.966,8217
1762140,1608630374.968,8216
1762141,1608630374.97,8215
1762142,1608630374.972,8214
1762143,1608630374.974,8213
1762144,1608630374.976,8212
1762145,1608630374.978,8211
1762146,1608630374.98,8211
1762147,1608630374.982,8210
1762148,1608630374.984,8211
1762149,1608630374.986,8211
1762150,1608630374.988,8212
1762151,1608630374.99,8213
1762152,1608630374.992,8214
1762153,1608630374.994,8215
1762154,1608630374.996,8216
1762155,1608630374.998,8218
1762156,1608630375.0,8219
1762157,1608630375.002,8220
1762158,1608630375.004,8221
1762159,1608630375.006,8222
1762160,1608630375.008,8223
1762161,1608630375.01,8223
1762162,1608630375.012,8223
1762163,1608630375.014,8223
1762164,1608630375.016,8222
1762165,1608630375.018,8221
1762166,1608630375.02,8220
1762167,1608630375.022,8218
1762168,1608630375.024,8217
1762169,1608630375.026,8215
1762170,1608630375.028,8213
1762171,1608630375.03,8211
1762172,1608630375.032,8209
1762173,1608630375.034,8207
1762174,1608630375.036,8205
1762175,1608630375.038,8203
1762176,1608630375.04,8200
1762177,1608630375.042,8198
1762178,1608630375.044,8197
1762179,1608630375.046,8195
1762180,1608630375.048,8193
1762181,1608630375.05,8192
1762182,1608630375.052,8191
1762183,1608630375.054,8190
1762184,1608630375.056,8189
1762185,1608630375.058,8188
1762186,1608630375.06,8187
1762187,1608630375.062,8187
1762188,1608630375.064,8186
1762189,1608630375.066,8186
1762190,1608630375.068,8186
1762191,1608630375.07,8186
1762192,1608630375.072,8186
1762193,1608630375.074,8186
1762194,1608630375.076,8186
1762195,1608630375.078,8185
1762196,1608630375.08,8185
1762197,1608630375.082,8185
1762198,1608630375.084,8185
1762199,1608630375.086,8185
1762200,1608630375.088,8184
1762201,1608630375.09,8184
1762202,1608630375.092,8184
1762203,1608630375.094,8184
1762204,1608630375.096,8185
1762205,1608630375.098,8185
1762206,1608630375.1,8185
1762207,1608630375.102,8186
1762208,1608630375.104,8187
1762209,1608630375.106,8188
1762210,1608630375.108,8190
1762211,1608630375.11,8193
1762212,1608630375.112,8196
1762213,1608630375.114,8201
1762214,1608630375.116,8206
1762215,1608630375.118,8212
1762216,1608630375.12,8219
1762217,1608630375.122,8225
1762218,1608630375.124,8230
1762219,1608630375.126,8233
1762220,1608630375.128,8233
1762221,1608630375.13,8229
1762222,1608630375.132,8221
1762223,1608630375.134,8208
1762224,1608630375.136,8192
1762225,1608630375.138,8173
1762226,1608630375.14,8152
1762227,1608630375.142,8132
1762228,1608630375.144,8112
1762229,1608630375.146,8095
1762230,1608630375.148,8081
1762231,1608630375.15,8070
1762232,1608630375.152,8063
1762233,1608630375.154,8058
1762234,1608630375.156,8057
1762235,1608630375.158,8057
1762236,1608630375.16,8059
1762237,1608630375.162,8064
1762238,1608630375.164,8069
1762239,1608630375.166,8077
1762240,1608630375.168,8086
1762241,1608630375.17,8096
1762242,1608630375.172,8106
1762243,1608630375.174,8117
1762244,1608630375.176,8127
1762245,1608630375.178,8136
1762246,1608630375.18,8145
1762247,1608630375.182,8152
1762248,1608630375.184,8159
1762249,1608630375.186,8164
1762250,1608630375.188,8169
1762251,1608630375.19,8174
1762252,1608630375.192,8177
1762253,1608630375.194,8181
1762254,1608630375.196,8184
1762255,1608630375.198,8186
1762256,1608630375.2,8188
1762257,1608630375.202,8189
1762258,1608630375.204,8190
1762259,1608630375.206,8191
1762260,1608630375.208,8191
1762261,1608630375.21,8191
1762262,1608630375.212,8191
1762263,1608630375.214,8192
1762264,1608630375.216,8192
1762265,1608630375.218,8192
1762266,1608630375.22,8192
1762267,1608630375.222,8192
1762268,1608630375.224,8192
1762269,1608630375.226,8192
1762270,1608630375.228,8191
1762271,1608630375.23,8191
1762272,1608630375.232,8191
1762273,1608630375.234,8191
1762274,1608630375.236,8191
1762275,1608630375.238,8191
1762276,1608630375.24,8191
1762277,1608630375.242,8191
1762278,1608630375.244,8191
1762279,1608630375.246,8191
1762280,1608630375.248,8192
1762281,1608630375.25,8192
1762282,1608630375.252,8192
1762283,1608630375.254,8193
1762284,1608630375.256,8193
1762285,1608630375.258,8194
1762286,1608630375.26,8195
1762287,1608630375.262,8196
1762288,1608630375.264,8197
1762289,1608630375.266,8198
1762290,1608630375.268,8199
1762291,1608630375.27,8200
1762292,1608630375.272,8201
1762293,1608630375.274,8202
1762294,1608630375.276,8204
1762295,1608630375.278,8205
1762296,1608630375.28,8207
1762297,1608630375.282,8208
1762298,1608630375.284,8210
1762299,1608630375.286,8212
1762300,1608630375.288,8213
1762301,1608630375.29,8215
1762302,1608630375.292,8217
1762303,1608630375.294,8218
1762304,1608630375.296,8220
1762305,1608630375.298,8222
1762306,1608630375.3,8223
1762307,1608630375.302,8225
1762308,1608630375.304,8226
1762309,1608630375.306,8227
1762310,1608630375.308,8229
1762311,1608630375.31,8230
1762312,1608630375.312,8231
1762313,1608630375.314,8232
1762314,1608630375.316,8232
1762315,1608630375.318,8233
1762316,1608630375.32,8233
1762317,1608630375.322,8234
1762318,1608630375.324,8234
1762319,1608630375.326,8233
1762320,1608630375.328,8233
1762321,1608630375.33,8233
1762322,1608630375.332,8232
1762323,1608630375.334,8232
1762324,1608630375.336,8231
1762325,1608630375.338,8230
1762326,1608630375.34,8229
1762327,1608630375.342,8228
1762328,1608630375.344,8227
1762329,1608630375.346,8226
1762330,1608630375.348,8225
1762331,1608630375.35,8223
1762332,1608630375.352,8222
1762333,1608630375.354,8221
1762334,1608630375.356,8219
1762335,1608630375.358,8218
1762336,1608630375.36,8217
1762337,1608630375.362,8216
1762338,1608630375.364,8216
1762339,1608630375.366,8215
1762340,1608630375.368,8214
1762341,1608630375.37,8214
1762342,1608630375.372,8214
1762343,1608630375.374,8214
1762344,1608630375.376,8215
1762345,1608630375.378,8216
1762346,1608630375.38,8216
1762347,1608630375.382,8217
1762348,1608630375.384,8218
1762349,1608630375.386,8219
1762350,1608630375.388,8220
1762351,1608630375.39,8221
1762352,1608630375.392,8222
1762353,1608630375.394,8223
1762354,1608630375.396,8224
1762355,1608630375.398,8224
1762356,1608630375.4,8224
1762357,1608630375.402,8224
1762358,1608630375.404,8223
1762359,1608630375.406,8223
1762360,1608630375.408,8222
1762361,1608630375.41,8220
1762362,1608630375.412,8219
1762363,1608630375.414,8217
1762364,1608630375.416,8216
1762365,1608630375.418,8214
1762366,1608630375.42,8212
1762367,1608630375.422,8210
1762368,1608630375.424,8208
1762369,1608630375.426,8206
1762370,1608630375.428,8204
1762371,1608630375.43,8202
1762372,1608630375.432,8200
1762373,1608630375.434,8198
1762374,1608630375.436,8197
1762375,1608630375.438,8195
1762376,1608630375.44,8194
1762377,1608630375.442,8193
1762378,1608630375.444,8192
1762379,1608630375.446,8191
1762380,1608630375.448,8191
1762381,1608630375.45,8190
1762382,1608630375.452,8190
1762383,1608630375.454,8189
1762384,1608630375.456,8189
1762385,1608630375.458,8189
1762386,1608630375.46,8188
1762387,1608630375.462,8188
1762388,1608630375.464,8188
1762389,1608630375.466,8188
1762390,1608630375.468,8187
1762391,1608630375.47,8187
1762392,1608630375.472,8187
1762393,1608630375.474,8186
1762394,1608630375.476,8186
1762395,1608630375.478,8186
1762396,1608630375.48,8186
1762397,1608630375.482,8186
1762398,1608630375.484,8186
1762399,1608630375.486,8186
1762400,1608630375.488,8186
1762401,1608630375.49,8186
1762402,1608630375.492,8187
1762403,1608630375.494,8188
1762404,1608630375.496,8189
1762405,1608630375.498,8191
1762406,1608630375.5,8194
1762407,1608630375.502,8198
1762408,1608630375.504,8202
1762409,1608630375.506,8208
1762410,1608630375.508,8215
1762411,1608630375.51,8221
1762412,1608630375.512,8227
1762413,1608630375.514,8231
1762414,1608630375.516,8233
1762415,1608630375.518,8232
1762416,1608630375.52,8227
1762417,1608630375.522,8217
1762418,1608630375.524,8203
1762419,1608630375.526,8186
1762420,1608630375.528,8167
1762421,1608630375.53,8146
1762422,1608630375.532,8126
1762423,1608630375.534,8107
1762424,1608630375.536,8091
1762425,1608630375.538,8078
1762426,1608630375.54,8068
1762427,1608630375.542,8061
1762428,1608630375.544,8057
1762429,1608630375.546,8056
1762430,1608630375.548,8057
1762431,1608630375.55,8059
1762432,1608630375.552,8064
1762433,1608630375.554,8070
1762434,1608630375.556,8078
1762435,1608630375.558,8088
1762436,1608630375.56,8098
1762437,1608630375.562,8109
1762438,1608630375.564,8119
1762439,1608630375.566,8129
1762440,1608630375.568,8138
1762441,1608630375.57,8146
1762442,1608630375.572,8153
1762443,1608630375.574,8159
1762444,1608630375.576,8165
1762445,1608630375.578,8169
1762446,1608630375.58,8173
1762447,1608630375.582,8177
1762448,1608630375.584,8180
1762449,1608630375.586,8182
1762450,1608630375.588,8184
1762451,1608630375.59,8186
1762452,1608630375.592,8187
1762453,1608630375.594,8187
1762454,1608630375.596,8188
1762455,1608630375.598,8188
1762456,1608630375.6,8189
1762457,1608630375.602,8189
1762458,1608630375.604,8189
1762459,1608630375.606,8189
1762460,1608630375.608,8189
1762461,1608630375.61,8189
1762462,1608630375.612,8189
1762463,1608630375.614,8189
1762464,1608630375.616,8189
1762465,1608630375.618,8189
1762466,1608630375.62,8189
1762467,1608630375.622,8189
1762468,1608630375.624,8189
1762469,1608630375.626,8189
1762470,1608630375.628,8189
1762471,1608630375.63,8189
1762472,1608630375.632,8189
1762473,1608630375.634,8189
1762474,1608630375.636,8189
1762475,1608630375.638,8190
1762476,1608630375.64,8190
1762477,1608630375.642,8190
1762478,1608630375.644,8190
1762479,1608630375.646,8191
1762480,1608630375.648,8191
1762481,1608630375.65,8192
1762482,1608630375.652,8193
1762483,1608630375.654,8194
1762484,1608630375.656,8195
1762485,1608630375.658,8196
1762486,1608630375.66,8197
1762487,1608630375.662,8199
1762488,1608630375.664,8200
1762489,1608630375.666,8202
1762490,1608630375.668,8203
1762491,1608630375.67,8205
1762492,1608630375.672,8207
1762493,1608630375.674,8208
1762494,1608630375.676,8210
1762495,1608630375.678,8212
1762496,1608630375.68,8213
1762497,1608630375.682,8215
1762498,1608630375.684,8216
1762499,1608630375.686,8218
1762500,1608630375.688,8219
1762501,1608630375.69,8221
1762502,1608630375.692,8222
1762503,1608630375.694,8224
1762504,1608630375.696,8225
1762505,1608630375.698,8227
1762506,1608630375.7,8228
1762507,1608630375.702,8229
1762508,1608630375.704,8230
1762509,1608630375.706,8230
1762510,1608630375.708,8230
1762511,1608630375.71,8231
1762512,1608630375.712,8231
1762513,1608630375.714,8231
1762514,1608630375.716,8230
1762515,1608630375.718,8230
1762516,1608630375.72,8229
1762517,1608630375.722,8229
1762518,1608630375.724,8228
1762519,1608630375.726,8228
1762520,1608630375.728,8227
1762521,1608630375.73,8226
1762522,1608630375.732,8225
1762523,1608630375.734,8224
1762524,1608630375.736,8223
1762525,1608630375.738,8222
1762526,1608630375.74,8221
1762527,1608630375.742,8219
1762528,1608630375.744,8218
1762529,1608630375.746,8217
1762530,1608630375.748,8216
1762531,1608630375.75,8215
1762532,1608630375.752,8214
1762533,1608630375.754,8213
1762534,1608630375.756,8212
1762535,1608630375.758,8212
1762536,1608630375.76,8211
1762537,1608630375.762,8211
1762538,1608630375.764,8212
1762539,1608630375.766,8212
1762540,1608630375.768,8213
1762541,1608630375.77,8214
1762542,1608630375.772,8215
1762543,1608630375.774,8216
1762544,1608630375.776,8218
1762545,1608630375.778,8219
1762546,1608630375.78,8220
1762547,1608630375.782,8221
1762548,1608630375.784,8222
1762549,1608630375.786,8223
1762550,1608630375.788,8223
1762551,1608630375.79,8224
1762552,1608630375.792,8223
1762553,1608630375.794,8223
1762554,1608630375.796,8222
1762555,1608630375.798,8221
1762556,1608630375.8,8219
1762557,1608630375.802,8218
1762558,1608630375.804,8216
1762559,1608630375.806,8215
1762560,1608630375.808,8213
1762561,1608630375.81,8211
1762562,1608630375.812,8209
1762563,1608630375.814,8208
1762564,1608630375.816,8206
1762565,1608630375.818,8204
1762566,1608630375.82,8201
1762567,1608630375.822,8200
1762568,1608630375.824,8198
1762569,1608630375.826,8196
1762570,1608630375.828,8195
1762571,1608630375.83,8193
1762572,1608630375.832,8192
1762573,1608630375.834,8191
1762574,1608630375.836,8190
1762575,1608630375.838,8189
1762576,1608630375.84,8189
1762577,1608630375.842,8189
1762578,1608630375.844,8188
1762579,1608630375.846,8188
1762580,1608630375.848,8188
1762581,1608630375.85,8188
1762582,1608630375.852,8188
1762583,1608630375.854,8187
1762584,1608630375.856,8187
1762585,1608630375.858,8187
1762586,1608630375.86,8187
1762587,1608630375.862,8187
1762588,1608630375.864,8187
1762589,1608630375.866,8187
1762590,1608630375.868,8187
1762591,1608630375.87,8187
1762592,1608630375.872,8186
1762593,1608630375.874,8186
1762594,1608630375.876,8186
1762595,1608630375.878,8187
1762596,1608630375.88,8187
1762597,1608630375.882,8187
1762598,1608630375.884,8188
1762599,1608630375.886,8190
1762600,1608630375.888,8192
1762601,1608630375.89,8195
1762602,1608630375.892,8199
1762603,1608630375.894,8204
1762604,1608630375.896,8210
1762605,1608630375.898,8216
1762606,1608630375.9,8223
1762607,1608630375.902,8228
1762608,1608630375.904,8232
1762609,1608630375.906,8233
1762610,1608630375.908,8231
1762611,1608630375.91,8225
1762612,1608630375.912,8214
1762613,1608630375.914,8199
1762614,1608630375.916,8182
1762615,1608630375.918,8162
1762616,1608630375.92,8141
1762617,1608630375.922,8121
1762618,1608630375.924,8103
1762619,1608630375.926,8088
1762620,1608630375.928,8075
1762621,1608630375.93,8066
1762622,1608630375.932,8060
1762623,1608630375.934,8057
1762624,1608630375.936,8057
1762625,1608630375.938,8059
1762626,1608630375.94,8062
1762627,1608630375.942,8067
1762628,1608630375.944,8074
1762629,1608630375.946,8082
1762630,1608630375.948,8091
1762631,1608630375.95,8101
1762632,1608630375.952,8112
1762633,1608630375.954,8122
1762634,1608630375.956,8132
1762635,1608630375.958,8140
1762636,1608630375.96,8148
1762637,1608630375.962,8155
1762638,1608630375.964,8160
1762639,1608630375.966,8165
1762640,1608630375.968,8170
1762641,1608630375.97,8174
1762642,1608630375.972,8177
1762643,1608630375.974,8180
1762644,1608630375.976,8183
1762645,1608630375.978,8185
1762646,1608630375.98,8186
1762647,1608630375.982,8187
1762648,1608630375.984,8188
1762649,1608630375.986,8189
1762650,1608630375.988,8189
1762651,1608630375.99,8189
1762652,1608630375.992,8189
1762653,1608630375.994,8189
1762654,1608630375.996,8189
1762655,1608630375.998,8189
1762656,1608630376.0,8189
1762657,1608630376.002,8189
1762658,1608630376.004,8189
1762659,1608630376.006,8189
1762660,1608630376.008,8189
1762661,1608630376.01,8189
1762662,1608630376.012,8189
1762663,1608630376.014,8189
1762664,1608630376.016,8189
1762665,1608630376.018,8190
1762666,1608630376.02,8190
1762667,1608630376.022,8190
1762668,1608630376.024,8190
1762669,1608630376.026,8191
1762670,1608630376.028,8191
1762671,1608630376.03,8191
1762672,1608630376.032,8192
1762673,1608630376.034,8192
1762674,1608630376.036,8192
1762675,1608630376.038,8193
1762676,1608630376.04,8193
1762677,1608630376.042,8194
1762678,1608630376.044,8195
1762679,1608630376.046,8196
1762680,1608630376.048,8197
1762681,1608630376.05,8198
1762682,1608630376.052,8199
1762683,1608630376.054,8200
1762684,1608630376.056,8202
1762685,1608630376.058,8203
1762686,1608630376.06,8205
1762687,1608630376.062,8206
1762688,1608630376.064,8208
1762689,1608630376.066,8210
1762690,1608630376.068,8212
1762691,1608630376.07,8213
1762692,1608630376.072,8215
1762693,1608630376.074,8217
1762694,1608630376.076,8218
1762695,1608630376.078,8220
1762696,1608630376.08,8222
1762697,1608630376.082,8223
1762698,1608630376.084,8225
1762699,1608630376.086,8226
1762700,1608630376.088,8227
1762701,1608630376.09,8229
1762702,1608630376.092,8230
1762703,1608630376.094,8231
1762704,1608630376.096,8231
1762705,1608630376.098,8232
1762706,1608630376.1,8232
1762707,1608630376.102,8232
1762708,1608630376.104,8232
1762709,1608630376.106,8232
1762710,1608630376.108,8232
1762711,1608630376.11,8232
1762712,1608630376.112,8231
1762713,1608630376.114,8230
1762714,1608630376.116,8229
1762715,1608630376.118,8228
1762716,1608630376.12,8227
1762717,1608630376.122,8226
1762718,1608630376.124,8225
1762719,1608630376.126,8224
1762720,1608630376.128,8223
1762721,1608630376.13,8221
1762722,1608630376.132,8220
1762723,1608630376.134,8219
1762724,1608630376.136,8218
1762725,1608630376.138,8217
1762726,1608630376.14,8216
1762727,1608630376.142,8215
1762728,1608630376.144,8214
1762729,1608630376.146,8213
1762730,1608630376.148,8213
1762731,1608630376.15,8213
1762732,1608630376.152,8213
1762733,1608630376.154,8213
1762734,1608630376.156,8214
1762735,1608630376.158,8214
1762736,1608630376.16,8215
1762737,1608630376.162,8216
1762738,1608630376.164,8217
1762739,1608630376.166,8219
1762740,1608630376.168,8220
1762741,1608630376.17,8221
1762742,1608630376.172,8222
1762743,1608630376.174,8223
1762744,1608630376.176,8223
1762745,1608630376.178,8224
1762746,1608630376.18,8224
1762747,1608630376.182,8224
1762748,1608630376.184,8224
1762749,1608630376.186,8223
1762750,1608630376.188,8222
1762751,1608630376.19,8221
1762752,1608630376.192,8220
1762753,1608630376.194,8218
1762754,1608630376.196,8216
1762755,1608630376.198,8215
1762756,1608630376.2,8213
1762757,1608630376.202,8211
1762758,1608630376.204,8209
1762759,1608630376.206,8206
1762760,1608630376.208,8204
1762761,1608630376.21,8202
1762762,1608630376.212,8200
1762763,1608630376.214,8198
1762764,1608630376.216,8196
1762765,1608630376.218,8194
1762766,1608630376.22,8193
1762767,1608630376.222,8191
1762768,1608630376.224,8190
1762769,1608630376.226,8189
1762770,1608630376.228,8189
1762771,1608630376.23,8188
1762772,1608630376.232,8187
1762773,1608630376.234,8187
1762774,1608630376.236,8187
1762775,1608630376.238,8186
1762776,1608630376.24,8186
1762777,1608630376.242,8186
1762778,1608630376.244,8186
1762779,1608630376.246,8186
1762780,1608630376.248,8186
1762781,1608630376.25,8186
1762782,1608630376.252,8186
1762783,1608630376.254,8186
1762784,1608630376.256,8186
1762785,1608630376.258,8185
1762786,1608630376.26,8185
1762787,1608630376.262,8185
1762788,1608630376.264,8185
1762789,1608630376.266,8185
1762790,1608630376.268,8185
1762791,1608630376.27,8185
1762792,1608630376.272,8186
1762793,1608630376.274,8187
1762794,1608630376.276,8188
1762795,1608630376.278,8190
1762796,1608630376.28,8193
1762797,1608630376.282,8197
1762798,1608630376.284,8202
1762799,1608630376.286,8208
1762800,1608630376.288,8214
1762801,1608630376.29,8220
1762802,1608630376.292,8225
1762803,1608630376.294,8229
1762804,1608630376.296,8230
1762805,1608630376.298,8229
1762806,1608630376.3,8223
1762807,1608630376.302,8212
1762808,1608630376.304,8198
1762809,1608630376.306,8181
1762810,1608630376.308,8161
1762811,1608630376.31,8141
1762812,1608630376.312,8121
1762813,1608630376.314,8103
1762814,1608630376.316,8088
1762815,1608630376.318,8076
1762816,1608630376.32,8067
1762817,1608630376.322,8061
1762818,1608630376.324,8058
1762819,1608630376.326,8058
1762820,1608630376.328,8059
1762821,1608630376.33,8062
1762822,1608630376.332,8067
1762823,1608630376.334,8074
1762824,1608630376.336,8082
1762825,1608630376.338,8091
1762826,1608630376.34,8101
1762827,1608630376.342,8111
1762828,1608630376.344,8121
1762829,1608630376.346,8131
1762830,1608630376.348,8140
1762831,1608630376.35,8147
1762832,1608630376.352,8154
1762833,1608630376.354,8161
1762834,1608630376.356,8166
1762835,1608630376.358,8170
1762836,1608630376.36,8175
1762837,1608630376.362,8178
1762838,1608630376.364,8181
1762839,1608630376.366,8184
1762840,1608630376.368,8186
1762841,1608630376.37,8187
1762842,1608630376.372,8188
1762843,1608630376.374,8189
1762844,1608630376.376,8190
1762845,1608630376.378,8190
1762846,1608630376.38,8190
1762847,1608630376.382,8190
1762848,1608630376.384,8190
1762849,1608630376.386,8190
1762850,1608630376.388,8190
1762851,1608630376.39,8191
1762852,1608630376.392,8191
1762853,1608630376.394,8191
1762854,1608630376.396,8191
1762855,1608630376.398,8191
1762856,1608630376.4,8191
1762857,1608630376.402,8191
1762858,1608630376.404,8191
1762859,1608630376.406,8191
1762860,1608630376.408,8191
1762861,1608630376.41,8192
1762862,1608630376.412,8192
1762863,1608630376.414,8192
1762864,1608630376.416,8192
1762865,1608630376.418,8192
1762866,1608630376.42,8193
1762867,1608630376.422,8193
1762868,1608630376.424,8193
1762869,1608630376.426,8194
1762870,1608630376.428,8194
1762871,1608630376.43,8195
1762872,1608630376.432,8196
1762873,1608630376.434,8196
1762874,1608630376.436,8197
1762875,1608630376.438,8198
1762876,1608630376.44,8199
1762877,1608630376.442,8201
1762878,1608630376.444,8202
1762879,1608630376.446,8203
1762880,1608630376.448,8205
1762881,1608630376.45,8207
1762882,1608630376.452,8208
1762883,1608630376.454,8210
1762884,1608630376.456,8212
1762885,1608630376.458,8213
1762886,1608630376.46,8215
1762887,1608630376.462,8216
1762888,1608630376.464,8218
1762889,1608630376.466,8219
1762890,1608630376.468,8221
1762891,1608630376.47,8222
1762892,1608630376.472,8224
1762893,1608630376.474,8225
1762894,1608630376.476,8227
1762895,1608630376.478,8228
1762896,1608630376.48,8229
1762897,1608630376.482,8230
1762898,1608630376.484,8231
1762899,1608630376.486,8231
1762900,1608630376.488,8232
1762901,1608630376.49,8232
1762902,1608630376.492,8232
1762903,1608630376.494,8232
1762904,1608630376.496,8232
1762905,1608630376.498,8232
1762906,1608630376.5,8231
1762907,1608630376.502,8231
1762908,1608630376.504,8230
1762909,1608630376.506,8229
1762910,1608630376.508,8228
1762911,1608630376.51,8227
1762912,1608630376.512,8226
1762913,1608630376.514,8224
1762914,1608630376.516,8223
1762915,1608630376.518,8222
1762916,1608630376.52,8221
1762917,1608630376.522,8220
1762918,1608630376.524,8218
1762919,1608630376.526,8217
1762920,1608630376.528,8216
1762921,1608630376.53,8215
1762922,1608630376.532,8214
1762923,1608630376.534,8213
1762924,1608630376.536,8212
1762925,1608630376.538,8212
1762926,1608630376.54,8212
1762927,1608630376.542,8212
1762928,1608630376.544,8212
1762929,1608630376.546,8213
1762930,1608630376.548,8214
1762931,1608630376.55,8215
1762932,1608630376.552,8216
1762933,1608630376.554,8217
1762934,1608630376.556,8218
1762935,1608630376.558,8219
1762936,1608630376.56,8220
1762937,1608630376.562,8221
1762938,1608630376.564,8222
1762939,1608630376.566,8223
1762940,1608630376.568,8224
1762941,1608630376.57,8224
1762942,1608630376.572,8224
1762943,1608630376.574,8223
1762944,1608630376.576,8222
1762945,1608630376.578,8221
1762946,1608630376.58,8220
1762947,1608630376.582,8219
1762948,1608630376.584,8217
1762949,1608630376.586,8215
1762950,1608630376.588,8213
1762951,1608630376.59,8212
1762952,1608630376.592,8210
1762953,1608630376.594,8208
1762954,1608630376.596,8205
1762955,1608630376.598,8203
1762956,1608630376.6,8201
1762957,1608630376.602,8199
1762958,1608630376.604,8197
1762959,1608630376.606,8195
1762960,1608630376.608,8193
1762961,1608630376.61,8192
1762962,1608630376.612,8190
1762963,1608630376.614,8189
1762964,1608630376.616,8188
1762965,1608630376.618,8188
1762966,1608630376.62,8187
1762967,1608630376.622,8187
1762968,1608630376.624,8186
1762969,1608630376.626,8186
1762970,1608630376.628,8186
1762971,1608630376.63,8185
1762972,1608630376.632,8185
1762973,1608630376.634,8184
1762974,1608630376.636,8184
1762975,1608630376.638,8184
1762976,1608630376.64,8184
1762977,1608630376.642,8183
1762978,1608630376.644,8183
1762979,1608630376.646,8183
1762980,1608630376.648,8183
1762981,1608630376.65,8183
1762982,1608630376.652,8183
1762983,1608630376.654,8183
1762984,1608630376.656,8183
1762985,1608630376.658,8183
1762986,1608630376.66,8184
1762987,1608630376.662,8184
1762988,1608630376.664,8185
1762989,1608630376.666,8187
1762990,1608630376.668,8189
1762991,1608630376.67,8192
1762992,1608630376.672,8196
1762993,1608630376.674,8201
1762994,1608630376.676,8207
1762995,1608630376.678,8213
1762996,1608630376.68,8219
1762997,1608630376.682,8225
1762998,1608630376.684,8228
1762999,1608630376.686,8230
1763000,1608630376.688,8228
1763001,1608630376.69,8222
1763002,1608630376.692,8212
1763003,1608630376.694,8197
1763004,1608630376.696,8180
1763005,1608630376.698,8160
1763006,1608630376.7,8139
1763007,1608630376.702,8119
1763008,1608630376.704,8101
1763009,1608630376.706,8086
1763010,1608630376.708,8074
1763011,1608630376.71,8065
1763012,1608630376.712,8059
1763013,1608630376.714,8056
1763014,1608630376.716,8056
1763015,1608630376.718,8057
1763016,1608630376.72,8060
1763017,1608630376.722,8065
1763018,1608630376.724,8072
1763019,1608630376.726,8080
1763020,1608630376.728,8089
1763021,1608630376.73,8099
1763022,1608630376.732,8109
1763023,1608630376.734,8119
1763024,1608630376.736,8129
1763025,1608630376.738,8137
1763026,1608630376.74,8145
1763027,1608630376.742,8152
1763028,1608630376.744,8158
1763029,1608630376.746,8164
1763030,1608630376.748,8168
1763031,1608630376.75,8173
1763032,1608630376.752,8176
1763033,1608630376.754,8179
1763034,1608630376.756,8182
1763035,1608630376.758,8184
1763036,1608630376.76,8185
1763037,1608630376.762,8187
1763038,1608630376.764,8187
1763039,1608630376.766,8188
1763040,1608630376.768,8188
1763041,1608630376.77,8188
1763042,1608630376.772,8188
1763043,1608630376.774,8188
1763044,1608630376.776,8188
1763045,1608630376.778,8188
1763046,1608630376.78,8188
1763047,1608630376.782,8188
1763048,1608630376.784,8188
1763049,1608630376.786,8188
1763050,1608630376.788,8188
1763051,1608630376.79,8188
1763052,1608630376.792,8188
1763053,1608630376.794,8188
1763054,1608630376.796,8188
1763055,1608630376.798,8188
1763056,1608630376.8,8188
1763057,1608630376.802,8188
1763058,1608630376.804,8188
1763059,1608630376.806,8188
1763060,1608630376.808,8189
1763061,1608630376.81,8189
1763062,1608630376.812,8190
1763063,1608630376.814,8190
1763064,1608630376.816,8190
1763065,1608630376.818,8191
1763066,1608630376.82,8192
1763067,1608630376.822,8193
1763068,1608630376.824,8193
1763069,1608630376.826,8194
1763070,1608630376.828,8195
1763071,1608630376.83,8197
1763072,1608630376.832,8198
1763073,1608630376.834,8199
1763074,1608630376.836,8201
1763075,1608630376.838,8202
1763076,1608630376.84,8204
1763077,1608630376.842,8206
1763078,1608630376.844,8208
1763079,1608630376.846,8210
1763080,1608630376.848,8211
1763081,1608630376.85,8213
1763082,1608630376.852,8215
1763083,1608630376.854,8217
1763084,1608630376.856,8218
1763085,1608630376.858,8220
1763086,1608630376.86,8222
1763087,1608630376.862,8223
1763088,1608630376.864,8225
1763089,1608630376.866,8226
1763090,1608630376.868,8227
1763091,1608630376.87,8229
1763092,1608630376.872,8230
1763093,1608630376.874,8230
1763094,1608630376.876,8231
1763095,1608630376.878,8232
1763096,1608630376.88,8232
1763097,1608630376.882,8232
1763098,1608630376.884,8232
1763099,1608630376.886,8232
1763100,1608630376.888,8231
1763101,1608630376.89,8231
1763102,1608630376.892,8230
1763103,1608630376.894,8229
1763104,1608630376.896,8228
1763105,1608630376.898,8227
1763106,1608630376.9,8226
1763107,1608630376.902,8225
1763108,1608630376.904,8224
1763109,1608630376.906,8223
1763110,1608630376.908,8222
1763111,1608630376.91,8221
1763112,1608630376.912,8219
1763113,1608630376.914,8218
1763114,1608630376.916,8217
1763115,1608630376.918,8216
1763116,1608630376.92,8215
1763117,1608630376.922,8214
1763118,1608630376.924,8213
1763119,1608630376.926,8212
1763120,1608630376.928,8212
1763121,1608630376.93,8212
1763122,1608630376.932,8212
1763123,1608630376.934,8212
1763124,1608630376.936,8213
1763125,1608630376.938,8213
1763126,1608630376.94,8214
1763127,1608630376.942,8215
1763128,1608630376.944,8217
1763129,1608630376.946,8218
1763130,1608630376.948,8219
1763131,1608630376.95,8220
1763132,1608630376.952,8221
1763133,1608630376.954,8222
1763134,1608630376.956,8222
1763135,1608630376.958,8222
1763136,1608630376.96,8222
1763137,1608630376.962,8222
1763138,1608630376.964,8221
1763139,1608630376.966,8220
1763140,1608630376.968,8219
1763141,1608630376.97,8218
1763142,1608630376.972,8217
1763143,1608630376.974,8215
1763144,1608630376.976,8213
1763145,1608630376.978,8212
1763146,1608630376.98,8210
1763147,1608630376.982,8208
1763148,1608630376.984,8206
1763149,1608630376.986,8204
1763150,1608630376.988,8202
1763151,1608630376.99,8200
1763152,1608630376.992,8198
1763153,1608630376.994,8196
1763154,1608630376.996,8194
1763155,1608630376.998,8193
1763156,1608630377.0,8191
1763157,1608630377.002,8190
1763158,1608630377.004,8189
1763159,1608630377.006,8188
1763160,1608630377.008,8187
1763161,1608630377.01,8187
1763162,1608630377.012,8186
1763163,1608630377.014,8186
1763164,1608630377.016,8185
1763165,1608630377.018,8185
1763166,1608630377.02,8184
1763167,1608630377.022,8184
1763168,1608630377.024,8184
1763169,1608630377.026,8184
1763170,1608630377.028,8184
1763171,1608630377.03,8184
1763172,1608630377.032,8184
1763173,1608630377.034,8184
1763174,1608630377.036,8184
1763175,1608630377.038,8184
1763176,1608630377.04,8184
1763177,1608630377.042,8184
1763178,1608630377.044,8184
1763179,1608630377.046,8184
1763180,1608630377.048,8184
1763181,1608630377.05,8184
1763182,1608630377.052,8184
1763183,1608630377.054,8186
1763184,1608630377.056,8187
1763185,1608630377.058,8190
1763186,1608630377.06,8193
1763187,1608630377.062,8197
1763188,1608630377.064,8202
1763189,1608630377.066,8208
1763190,1608630377.068,8214
1763191,1608630377.07,8220
1763192,1608630377.072,8225
1763193,1608630377.074,8229
1763194,1608630377.076,8230
1763195,1608630377.078,8228
1763196,1608630377.08,8222
1763197,1608630377.082,8211
1763198,1608630377.084,8197
1763199,1608630377.086,8179
1763200,1608630377.088,8160
1763201,1608630377.09,8139
1763202,1608630377.092,8119
1763203,1608630377.094,8101
1763204,1608630377.096,8086
1763205,1608630377.098,8074
1763206,1608630377.1,8066
1763207,1608630377.102,8060
1763208,1608630377.104,8057
1763209,1608630377.106,8056
1763210,1608630377.108,8058
1763211,1608630377.11,8061
1763212,1608630377.112,8065
1763213,1608630377.114,8072
1763214,1608630377.116,8080
1763215,1608630377.118,8089
1763216,1608630377.12,8098
1763217,1608630377.122,8109
1763218,1608630377.124,8119
1763219,1608630377.126,8129
1763220,1608630377.128,8137
1763221,1608630377.13,8145
1763222,1608630377.132,8152
1763223,1608630377.134,8158
1763224,1608630377.136,8164
1763225,1608630377.138,8168
1763226,1608630377.14,8172
1763227,1608630377.142,8176
1763228,1608630377.144,8179
1763229,1608630377.146,8182
1763230,1608630377.148,8184
1763231,1608630377.15,8186
1763232,1608630377.152,8187
1763233,1608630377.154,8188
1763234,1608630377.156,8189
1763235,1608630377.158,8189
1763236,1608630377.16,8189
1763237,1608630377.162,8189
1763238,1608630377.164,8189
1763239,1608630377.166,8189
1763240,1608630377.168,8189
1763241,1608630377.17,8189
1763242,1608630377.172,8190
1763243,1608630377.174,8190
1763244,1608630377.176,8190
1763245,1608630377.178,8190
1763246,1608630377.18,8190
1763247,1608630377.182,8190
1763248,1608630377.184,8190
1763249,1608630377.186,8190
1763250,1608630377.188,8190
1763251,1608630377.19,8190
1763252,1608630377.192,8190
1763253,1608630377.194,8190
1763254,1608630377.196,8190
1763255,1608630377.198,8191
1763256,1608630377.2,8191
1763257,1608630377.202,8191
1763258,1608630377.204,8192
1763259,1608630377.206,8192
1763260,1608630377.208,8193
1763261,1608630377.21,8194
1763262,1608630377.212,8194
1763263,1608630377.214,8195
1763264,1608630377.216,8196
1763265,1608630377.218,8197
1763266,1608630377.22,8198
1763267,1608630377.222,8199
1763268,1608630377.224,8200
1763269,1608630377.226,8201
1763270,1608630377.228,8203
1763271,1608630377.23,8205
1763272,1608630377.232,8206
1763273,1608630377.234,8208
1763274,1608630377.236,8210
1763275,1608630377.238,8212
1763276,1608630377.24,8214
1763277,1608630377.242,8215
1763278,1608630377.244,8217
1763279,1608630377.246,8219
1763280,1608630377.248,8221
1763281,1608630377.25,8222
1763282,1608630377.252,8224
1763283,1608630377.254,8225
1763284,1608630377.256,8227
1763285,1608630377.258,8228
1763286,1608630377.26,8229
1763287,1608630377.262,8230
1763288,1608630377.264,8231
1763289,1608630377.266,8232
1763290,1608630377.268,8232
1763291,1608630377.27,8233
1763292,1608630377.272,8233
1763293,1608630377.274,8233
1763294,1608630377.276,8233
1763295,1608630377.278,8232
1763296,1608630377.28,8232
1763297,1608630377.282,8231
1763298,1608630377.284,8230
1763299,1608630377.286,8229
1763300,1608630377.288,8228
1763301,1608630377.29,8226
1763302,1608630377.292,8225
1763303,1608630377.294,8224
1763304,1608630377.296,8223
1763305,1608630377.298,8221
1763306,1608630377.3,8220
1763307,1608630377.302,8219
1763308,1608630377.304,8218
1763309,1608630377.306,8217
1763310,1608630377.308,8216
1763311,1608630377.31,8215
1763312,1608630377.312,8214
1763313,1608630377.314,8213
1763314,1608630377.316,8212
1763315,1608630377.318,8212
1763316,1608630377.32,8212
1763317,1608630377.322,8212
1763318,1608630377.324,8212
1763319,1608630377.326,8213
1763320,1608630377.328,8214
1763321,1608630377.33,8215
1763322,1608630377.332,8216
1763323,1608630377.334,8218
1763324,1608630377.336,8219
1763325,1608630377.338,8220
1763326,1608630377.34,8221
1763327,1608630377.342,8222
1763328,1608630377.344,8223
1763329,1608630377.346,8224
1763330,1608630377.348,8224
1763331,1608630377.35,8224
1763332,1608630377.352,8224
1763333,1608630377.354,8223
1763334,1608630377.356,8222
1763335,1608630377.358,8221
1763336,1608630377.36,8220
1763337,1608630377.362,8219
1763338,1608630377.364,8217
1763339,1608630377.366,8215
1763340,1608630377.368,8213
1763341,1608630377.37,8211
1763342,1608630377.372,8209
1763343,1608630377.374,8207
1763344,1608630377.376,8204
1763345,1608630377.378,8202
1763346,1608630377.38,8200
1763347,1608630377.382,8198
1763348,1608630377.384,8196
1763349,1608630377.386,8194
1763350,1608630377.388,8193
1763351,1608630377.39,8192
1763352,1608630377.392,8190
1763353,1608630377.394,8189
1763354,1608630377.396,8188
1763355,1608630377.398,8187
1763356,1608630377.4,8187
1763357,1608630377.402,8186
1763358,1608630377.404,8186
1763359,1608630377.406,8185
1763360,1608630377.408,8185
1763361,1608630377.41,8185
1763362,1608630377.412,8185
1763363,1608630377.414,8185
1763364,1608630377.416,8185
1763365,1608630377.418,8185
1763366,1608630377.42,8185
1763367,1608630377.422,8185
1763368,1608630377.424,8185
1763369,1608630377.426,8185
1763370,1608630377.428,8185
1763371,1608630377.43,8185
1763372,1608630377.432,8185
1763373,1608630377.434,8185
1763374,1608630377.436,8184
1763375,1608630377.438,8185
1763376,1608630377.44,8185
1763377,1608630377.442,8185
1763378,1608630377.444,8186
1763379,1608630377.446,8188
1763380,1608630377.448,8190
1763381,1608630377.45,8193
1763382,1608630377.452,8197
1763383,1608630377.454,8202
1763384,1608630377.456,8208
1763385,1608630377.458,8214
1763386,1608630377.46,8220
1763387,1608630377.462,8226
1763388,1608630377.464,8229
1763389,1608630377.466,8231
1763390,1608630377.468,8229
1763391,1608630377.47,8222
1763392,1608630377.472,8212
1763393,1608630377.474,8197
1763394,1608630377.476,8179
1763395,1608630377.478,8159
1763396,1608630377.48,8139
1763397,1608630377.482,8119
1763398,1608630377.484,8101
1763399,1608630377.486,8086
1763400,1608630377.488,8073
1763401,1608630377.49,8065
1763402,1608630377.492,8059
1763403,1608630377.494,8056
1763404,1608630377.496,8055
1763405,1608630377.498,8057
1763406,1608630377.5,8059
1763407,1608630377.502,8064
1763408,1608630377.504,8070
1763409,1608630377.506,8078
1763410,1608630377.508,8087
1763411,1608630377.51,8097
1763412,1608630377.512,8107
1763413,1608630377.514,8117
1763414,1608630377.516,8127
1763415,1608630377.518,8136
1763416,1608630377.52,8144
1763417,1608630377.522,8151
1763418,1608630377.524,8157
1763419,1608630377.526,8162
1763420,1608630377.528,8167
1763421,1608630377.53,8171
1763422,1608630377.532,8175
1763423,1608630377.534,8178
1763424,1608630377.536,8181
1763425,1608630377.538,8183
1763426,1608630377.54,8185
1763427,1608630377.542,8186
1763428,1608630377.544,8187
1763429,1608630377.546,8188
1763430,1608630377.548,8188
1763431,1608630377.55,8188
1763432,1608630377.552,8188
1763433,1608630377.554,8188
1763434,1608630377.556,8188
1763435,1608630377.558,8189
1763436,1608630377.56,8189
1763437,1608630377.562,8189
1763438,1608630377.564,8189
1763439,1608630377.566,8189
1763440,1608630377.568,8189
1763441,1608630377.57,8189
1763442,1608630377.572,8189
1763443,1608630377.574,8189
1763444,1608630377.576,8188
1763445,1608630377.578,8188
1763446,1608630377.58,8188
1763447,1608630377.582,8188
1763448,1608630377.584,8188
1763449,1608630377.586,8189
1763450,1608630377.588,8189
1763451,1608630377.59,8189
1763452,1608630377.592,8190
1763453,1608630377.594,8190
1763454,1608630377.596,8191
1763455,1608630377.598,8191
1763456,1608630377.6,8192
1763457,1608630377.602,8192
1763458,1608630377.604,8193
1763459,1608630377.606,8194
1763460,1608630377.608,8195
1763461,1608630377.61,8196
1763462,1608630377.612,8198
1763463,1608630377.614,8199
1763464,1608630377.616,8201
1763465,1608630377.618,8202
1763466,1608630377.62,8204
1763467,1608630377.622,8206
1763468,1608630377.624,8207
1763469,1608630377.626,8209
1763470,1608630377.628,8211
1763471,1608630377.63,8212
1763472,1608630377.632,8214
1763473,1608630377.634,8216
1763474,1608630377.636,8218
1763475,1608630377.638,8220
1763476,1608630377.64,8221
1763477,1608630377.642,8223
1763478,1608630377.644,8224
1763479,1608630377.646,8226
1763480,1608630377.648,8227
1763481,1608630377.65,8228
1763482,1608630377.652,8229
1763483,1608630377.654,8229
1763484,1608630377.656,8230
1763485,1608630377.658,8231
1763486,1608630377.66,8231
1763487,1608630377.662,8231
1763488,1608630377.664,8231
1763489,1608630377.666,8231
1763490,1608630377.668,8231
1763491,1608630377.67,8231
1763492,1608630377.672,8230
1763493,1608630377.674,8230
1763494,1608630377.676,8229
1763495,1608630377.678,8228
1763496,1608630377.68,8227
1763497,1608630377.682,8225
1763498,1608630377.684,8224
1763499,1608630377.686,8223
1763500,1608630377.688,8221
1763501,1608630377.69,8220
1763502,1608630377.692,8218
1763503,1608630377.694,8217
1763504,1608630377.696,8216
1763505,1608630377.698,8215
1763506,1608630377.7,8214
1763507,1608630377.702,8213
1763508,1608630377.704,8212
1763509,1608630377.706,8211
1763510,1608630377.708,8211
1763511,1608630377.71,8211
1763512,1608630377.712,8211
1763513,1608630377.714,8212
1763514,1608630377.716,8213
1763515,1608630377.718,8213
1763516,1608630377.72,8214
1763517,1608630377.722,8216
1763518,1608630377.724,8217
1763519,1608630377.726,8218
1763520,1608630377.728,8219
1763521,1608630377.73,8220
1763522,1608630377.732,8222
1763523,1608630377.734,8223
1763524,1608630377.736,8223
1763525,1608630377.738,8224
1763526,1608630377.74,8224
1763527,1608630377.742,8224
1763528,1608630377.744,8224
1763529,1608630377.746,8223
1763530,1608630377.748,8222
1763531,1608630377.75,8220
1763532,1608630377.752,8219
1763533,1608630377.754,8217
1763534,1608630377.756,8215
1763535,1608630377.758,8213
1763536,1608630377.76,8211
1763537,1608630377.762,8209
1763538,1608630377.764,8207
1763539,1608630377.766,8204
1763540,1608630377.768,8202
1763541,1608630377.77,8200
1763542,1608630377.772,8198
1763543,1608630377.774,8196
1763544,1608630377.776,8195
1763545,1608630377.778,8193
1763546,1608630377.78,8192
1763547,1608630377.782,8191
1763548,1608630377.784,8190
1763549,1608630377.786,8189
1763550,1608630377.788,8188
1763551,1608630377.79,8187
1763552,1608630377.792,8187
1763553,1608630377.794,8186
1763554,1608630377.796,8186
1763555,1608630377.798,8185
1763556,1608630377.8,8185
1763557,1608630377.802,8184
1763558,1608630377.804,8184
1763559,1608630377.806,8184
1763560,1608630377.808,8184
1763561,1608630377.81,8184
1763562,1608630377.812,8184
1763563,1608630377.814,8184
1763564,1608630377.816,8184
1763565,1608630377.818,8184
1763566,1608630377.82,8184
1763567,1608630377.822,8184
1763568,1608630377.824,8184
1763569,1608630377.826,8184
1763570,1608630377.828,8185
1763571,1608630377.83,8185
1763572,1608630377.832,8185
1763573,1608630377.834,8186
1763574,1608630377.836,8188
1763575,1608630377.838,8190
1763576,1608630377.84,8193
1763577,1608630377.842,8197
1763578,1608630377.844,8201
1763579,1608630377.846,8207
1763580,1608630377.848,8213
1763581,1608630377.85,8219
1763582,1608630377.852,8225
1763583,1608630377.854,8229
1763584,1608630377.856,8230
1763585,1608630377.858,8228
1763586,1608630377.86,8222
1763587,1608630377.862,8212
1763588,1608630377.864,8197
1763589,1608630377.866,8179
1763590,1608630377.868,8159
1763591,1608630377.87,8139
1763592,1608630377.872,8118
1763593,1608630377.874,8100
1763594,1608630377.876,8085
1763595,1608630377.878,8073
1763596,1608630377.88,8064
1763597,1608630377.882,8059
1763598,1608630377.884,8056
1763599,1608630377.886,8056
1763600,1608630377.888,8057
1763601,1608630377.89,8060
1763602,1608630377.892,8065
1763603,1608630377.894,8071
1763604,1608630377.896,8079
1763605,1608630377.898,8088
1763606,1608630377.9,8098
1763607,1608630377.902,8108
1763608,1608630377.904,8118
1763609,1608630377.906,8128
1763610,1608630377.908,8137
1763611,1608630377.91,8145
1763612,1608630377.912,8152
1763613,1608630377.914,8159
1763614,1608630377.916,8164
1763615,1608630377.918,8169
1763616,1608630377.92,8173
1763617,1608630377.922,8176
1763618,1608630377.924,8179
1763619,1608630377.926,8182
1763620,1608630377.928,8184
1763621,1608630377.93,8185
1763622,1608630377.932,8186
1763623,1608630377.934,8187
1763624,1608630377.936,8188
1763625,1608630377.938,8188
1763626,1608630377.94,8189
1763627,1608630377.942,8189
1763628,1608630377.944,8189
1763629,1608630377.946,8189
1763630,1608630377.948,8189
1763631,1608630377.95,8189
1763632,1608630377.952,8189
1763633,1608630377.954,8189
1763634,1608630377.956,8189
1763635,1608630377.958,8189
1763636,1608630377.96,8189
1763637,1608630377.962,8189
1763638,1608630377.964,8189
1763639,1608630377.966,8189
1763640,1608630377.968,8189
1763641,1608630377.97,8189
1763642,1608630377.972,8189
1763643,1608630377.974,8189
1763644,1608630377.976,8189
1763645,1608630377.978,8189
1763646,1608630377.98,8190
1763647,1608630377.982,8190
1763648,1608630377.984,8191
1763649,1608630377.986,8191
1763650,1608630377.988,8192
1763651,1608630377.99,8193
1763652,1608630377.992,8194
1763653,1608630377.994,8194
1763654,1608630377.996,8195
1763655,1608630377.998,8197
1763656,1608630378.0,8198
1763657,1608630378.002,8199
1763658,1608630378.004,8200
1763659,1608630378.006,8201
1763660,1608630378.008,8203
1763661,1608630378.01,8205
1763662,1608630378.012,8206
1763663,1608630378.014,8208
1763664,1608630378.016,8210
1763665,1608630378.018,8212
1763666,1608630378.02,8214
1763667,1608630378.022,8215
1763668,1608630378.024,8217
1763669,1608630378.026,8219
1763670,1608630378.028,8220
1763671,1608630378.03,8222
1763672,1608630378.032,8224
1763673,1608630378.034,8225
1763674,1608630378.036,8226
1763675,1608630378.038,8228
1763676,1608630378.04,8229
1763677,1608630378.042,8230
1763678,1608630378.044,8231
1763679,1608630378.046,8231
1763680,1608630378.048,8232
1763681,1608630378.05,8232
1763682,1608630378.052,8232
1763683,1608630378.054,8232
1763684,1608630378.056,8232
1763685,1608630378.058,8231
1763686,1608630378.06,8231
1763687,1608630378.062,8230
1763688,1608630378.064,8230
1763689,1608630378.066,8229
1763690,1608630378.068,8228
1763691,1608630378.07,8227
1763692,1608630378.072,8226
1763693,1608630378.074,8225
1763694,1608630378.076,8224
1763695,1608630378.078,8223
1763696,1608630378.08,8222
1763697,1608630378.082,8220
1763698,1608630378.084,8219
1763699,1608630378.086,8218
1763700,1608630378.088,8217
1763701,1608630378.09,8216
1763702,1608630378.092,8215
1763703,1608630378.094,8214
1763704,1608630378.096,8213
1763705,1608630378.098,8213
1763706,1608630378.1,8213
1763707,1608630378.102,8213
1763708,1608630378.104,8213
1763709,1608630378.106,8214
1763710,1608630378.108,8214
1763711,1608630378.11,8215
1763712,1608630378.112,8217
1763713,1608630378.114,8218
1763714,1608630378.116,8219
1763715,1608630378.118,8220
1763716,1608630378.12,8221
1763717,1608630378.122,8222
1763718,1608630378.124,8223
1763719,1608630378.126,8223
1763720,1608630378.128,8224
1763721,1608630378.13,8224
1763722,1608630378.132,8224
1763723,1608630378.134,8223
1763724,1608630378.136,8222
1763725,1608630378.138,8221
1763726,1608630378.14,8220
1763727,1608630378.142,8218
1763728,1608630378.144,8217
1763729,1608630378.146,8215
1763730,1608630378.148,8213
1763731,1608630378.15,8211
1763732,1608630378.152,8209
1763733,1608630378.154,8207
1763734,1608630378.156,8205
1763735,1608630378.158,8203
1763736,1608630378.16,8201
1763737,1608630378.162,8199
1763738,1608630378.164,8197
1763739,1608630378.166,8195
1763740,1608630378.168,8194
1763741,1608630378.17,8193
1763742,1608630378.172,8191
1763743,1608630378.174,8190
1763744,1608630378.176,8189
1763745,1608630378.178,8188
1763746,1608630378.18,8188
1763747,1608630378.182,8187
1763748,1608630378.184,8187
1763749,1608630378.186,8187
1763750,1608630378.188,8186
1763751,1608630378.19,8186
1763752,1608630378.192,8186
1763753,1608630378.194,8186
1763754,1608630378.196,8185
1763755,1608630378.198,8185
1763756,1608630378.2,8185
1763757,1608630378.202,8185
1763758,1608630378.204,8184
1763759,1608630378.206,8184
1763760,1608630378.208,8184
1763761,1608630378.21,8184
1763762,1608630378.212,8184
1763763,1608630378.214,8184
1763764,1608630378.216,8185
1763765,1608630378.218,8185
1763766,1608630378.22,8185
1763767,1608630378.222,8186
1763768,1608630378.224,8186
1763769,1608630378.226,8188
1763770,1608630378.228,8190
1763771,1608630378.23,8193
1763772,1608630378.232,8197
1763773,1608630378.234,8202
1763774,1608630378.236,8208
1763775,1608630378.238,8214
1763776,1608630378.24,8220
1763777,1608630378.242,8226
1763778,1608630378.244,8230
1763779,1608630378.246,8232
1763780,1608630378.248,8230
1763781,1608630378.25,8224
1763782,1608630378.252,8213
1763783,1608630378.254,8198
1763784,1608630378.256,8180
1763785,1608630378.258,8160
1763786,1608630378.26,8139
1763787,1608630378.262,8119
1763788,1608630378.264,8101
1763789,1608630378.266,8086
1763790,1608630378.268,8073
1763791,1608630378.27,8065
1763792,1608630378.272,8059
1763793,1608630378.274,8056
1763794,1608630378.276,8056
1763795,1608630378.278,8057
1763796,1608630378.28,8060
1763797,1608630378.282,8065
1763798,1608630378.284,8071
1763799,1608630378.286,8079
1763800,1608630378.288,8088
1763801,1608630378.29,8098
1763802,1608630378.292,8108
1763803,1608630378.294,8119
1763804,1608630378.296,8129
1763805,1608630378.298,8138
1763806,1608630378.3,8146
1763807,1608630378.302,8153
1763808,1608630378.304,8160
1763809,1608630378.306,8165
1763810,1608630378.308,8170
1763811,1608630378.31,8174
1763812,1608630378.312,8178
1763813,1608630378.314,8180
1763814,1608630378.316,8183
1763815,1608630378.318,8185
1763816,1608630378.32,8186
1763817,1608630378.322,8187
1763818,1608630378.324,8187
1763819,1608630378.326,8188
1763820,1608630378.328,8188
1763821,1608630378.33,8189
1763822,1608630378.332,8189
1763823,1608630378.334,8189
1763824,1608630378.336,8189
1763825,1608630378.338,8189
1763826,1608630378.34,8189
1763827,1608630378.342,8189
1763828,1608630378.344,8189
1763829,1608630378.346,8189
1763830,1608630378.348,8189
1763831,1608630378.35,8189
1763832,1608630378.352,8189
1763833,1608630378.354,8189
1763834,1608630378.356,8189
1763835,1608630378.358,8189
1763836,1608630378.36,8189
1763837,1608630378.362,8189
1763838,1608630378.364,8189
1763839,1608630378.366,8189
1763840,1608630378.368,8190
1763841,1608630378.37,8190
1763842,1608630378.372,8190
1763843,1608630378.374,8191
1763844,1608630378.376,8191
1763845,1608630378.378,8192
1763846,1608630378.38,8192
1763847,1608630378.382,8193
1763848,1608630378.384,8193
1763849,1608630378.386,8194
1763850,1608630378.388,8195
1763851,1608630378.39,8196
1763852,1608630378.392,8197
1763853,1608630378.394,8198
1763854,1608630378.396,8199
1763855,1608630378.398,8201
1763856,1608630378.4,8202
1763857,1608630378.402,8204
1763858,1608630378.404,8206
1763859,1608630378.406,8207
1763860,1608630378.408,8209
1763861,1608630378.41,8211
1763862,1608630378.412,8213
1763863,1608630378.414,8215
1763864,1608630378.416,8217
1763865,1608630378.418,8219
1763866,1608630378.42,8220
1763867,1608630378.422,8222
1763868,1608630378.424,8223
1763869,1608630378.426,8225
1763870,1608630378.428,8226
1763871,1608630378.43,8227
1763872,1608630378.432,8228
1763873,1608630378.434,8229
1763874,1608630378.436,8229
1763875,1608630378.438,8230
1763876,1608630378.44,8230
1763877,1608630378.442,8230
1763878,1608630378.444,8230
1763879,1608630378.446,8230
1763880,1608630378.448,8230
1763881,1608630378.45,8229
1763882,1608630378.452,8229
1763883,1608630378.454,8228
1763884,1608630378.456,8228
1763885,1608630378.458,8227
1763886,1608630378.46,8226
1763887,1608630378.462,8225
1763888,1608630378.464,8224
1763889,1608630378.466,8223
1763890,1608630378.468,8222
1763891,1608630378.47,8220
1763892,1608630378.472,8219
1763893,1608630378.474,8218
1763894,1608630378.476,8217
1763895,1608630378.478,8216
1763896,1608630378.48,8214
1763897,1608630378.482,8213
1763898,1608630378.484,8212
1763899,1608630378.486,8212
1763900,1608630378.488,8211
1763901,1608630378.49,8211
1763902,1608630378.492,8211
1763903,1608630378.494,8211
1763904,1608630378.496,8212
1763905,1608630378.498,8212
1763906,1608630378.5,8213
1763907,1608630378.502,8214
1763908,1608630378.504,8216
1763909,1608630378.506,8217
1763910,1608630378.508,8218
1763911,1608630378.51,8219
1763912,1608630378.512,8220
1763913,1608630378.514,8221
1763914,1608630378.516,8222
1763915,1608630378.518,8222
1763916,1608630378.52,8222
1763917,1608630378.522,8222
1763918,1608630378.524,8221
1763919,1608630378.526,8220
1763920,1608630378.528,8219
1763921,1608630378.53,8218
1763922,1608630378.532,8217
1763923,1608630378.534,8215
1763924,1608630378.536,8214
1763925,1608630378.538,8212
1763926,1608630378.54,8210
1763927,1608630378.542,8208
1763928,1608630378.544,8206
1763929,1608630378.546,8204
1763930,1608630378.548,8202
1763931,1608630378.55,8200
1763932,1608630378.552,8198
1763933,1608630378.554,8196
1763934,1608630378.556,8194
1763935,1608630378.558,8193
1763936,1608630378.56,8192
1763937,1608630378.562,8190
1763938,1608630378.564,8189
1763939,1608630378.566,8188
1763940,1608630378.568,8187
1763941,1608630378.57,8187
1763942,1608630378.572,8186
1763943,1608630378.574,8186
1763944,1608630378.576,8186
1763945,1608630378.578,8185
1763946,1608630378.58,8185
1763947,1608630378.582,8185
1763948,1608630378.584,8185
1763949,1608630378.586,8185
1763950,1608630378.588,8184
1763951,1608630378.59,8184
1763952,1608630378.592,8184
1763953,1608630378.594,8184
1763954,1608630378.596,8183
1763955,1608630378.598,8183
1763956,1608630378.6,8183
1763957,1608630378.602,8183
1763958,1608630378.604,8183
1763959,1608630378.606,8183
1763960,1608630378.608,8183
1763961,1608630378.61,8184
1763962,1608630378.612,8184
1763963,1608630378.614,8185
1763964,1608630378.616,8187
1763965,1608630378.618,8189
1763966,1608630378.62,8193
1763967,1608630378.622,8197
1763968,1608630378.624,8202
1763969,1608630378.626,8208
1763970,1608630378.628,8215
1763971,1608630378.63,8221
1763972,1608630378.632,8227
1763973,1608630378.634,8230
1763974,1608630378.636,8232
1763975,1608630378.638,8229
1763976,1608630378.64,8223
1763977,1608630378.642,8211
1763978,1608630378.644,8196
1763979,1608630378.646,8178
1763980,1608630378.648,8158
1763981,1608630378.65,8138
1763982,1608630378.652,8118
1763983,1608630378.654,8100
1763984,1608630378.656,8085
1763985,1608630378.658,8073
1763986,1608630378.66,8064
1763987,1608630378.662,8058
1763988,1608630378.664,8056
1763989,1608630378.666,8055
1763990,1608630378.668,8057
1763991,1608630378.67,8060
1763992,1608630378.672,8065
1763993,1608630378.674,8072
1763994,1608630378.676,8080
1763995,1608630378.678,8089
1763996,1608630378.68,8100
1763997,1608630378.682,8110
1763998,1608630378.684,8120
1763999,1608630378.686,8130
1764000,1608630378.688,8139
1764001,1608630378.69,8147
1764002,1608630378.692,8154
1764003,1608630378.694,8160
1764004,1608630378.696,8165
1764005,1608630378.698,8170
1764006,1608630378.7,8173
1764007,1608630378.702,8177
1764008,1608630378.704,8180
1764009,1608630378.706,8182
1764010,1608630378.708,8184
1764011,1608630378.71,8186
1764012,1608630378.712,8187
1764013,1608630378.714,8188
1764014,1608630378.716,8188
1764015,1608630378.718,8188
1764016,1608630378.72,8189
1764017,1608630378.722,8189
1764018,1608630378.724,8189
1764019,1608630378.726,8189
1764020,1608630378.728,8189
1764021,1608630378.73,8189
1764022,1608630378.732,8189
1764023,1608630378.734,8189
1764024,1608630378.736,8189
1764025,1608630378.738,8189
1764026,1608630378.74,8189
1764027,1608630378.742,8189
1764028,1608630378.744,8189
1764029,1608630378.746,8189
1764030,1608630378.748,8189
1764031,1608630378.75,8189
1764032,1608630378.752,8189
1764033,1608630378.754,8189
1764034,1608630378.756,8189
1764035,1608630378.758,8189
1764036,1608630378.76,8190
1764037,1608630378.762,8190
1764038,1608630378.764,8190
1764039,1608630378.766,8191
1764040,1608630378.768,8192
1764041,1608630378.77,8192
1764042,1608630378.772,8193
1764043,1608630378.774,8194
1764044,1608630378.776,8195
1764045,1608630378.778,8196
1764046,1608630378.78,8197
1764047,1608630378.782,8198
1764048,1608630378.784,8199
1764049,1608630378.786,8201
1764050,1608630378.788,8202
1764051,1608630378.79,8204
1764052,1608630378.792,8205
1764053,1608630378.794,8207
1764054,1608630378.796,8209
1764055,1608630378.798,8210
1764056,1608630378.8,8212
1764057,1608630378.802,8214
1764058,1608630378.804,8216
1764059,1608630378.806,8218
1764060,1608630378.808,8219
1764061,1608630378.81,8221
1764062,1608630378.812,8222
1764063,1608630378.814,8224
1764064,1608630378.816,8225
1764065,1608630378.818,8226
1764066,1608630378.82,8227
1764067,1608630378.822,8229
1764068,1608630378.824,8229
1764069,1608630378.826,8230
1764070,1608630378.828,8230
1764071,1608630378.83,8231
1764072,1608630378.832,8231
1764073,1608630378.834,8230
1764074,1608630378.836,8230
1764075,1608630378.838,8230
1764076,1608630378.84,8229
1764077,1608630378.842,8228
1764078,1608630378.844,8228
1764079,1608630378.846,8227
1764080,1608630378.848,8226
1764081,1608630378.85,8225
1764082,1608630378.852,8224
1764083,1608630378.854,8223
1764084,1608630378.856,8222
1764085,1608630378.858,8221
1764086,1608630378.86,8220
1764087,1608630378.862,8219
1764088,1608630378.864,8218
1764089,1608630378.866,8217
1764090,1608630378.868,8216
1764091,1608630378.87,8215
1764092,1608630378.872,8214
1764093,1608630378.874,8213
1764094,1608630378.876,8212
1764095,1608630378.878,8212
1764096,1608630378.88,8212
1764097,1608630378.882,8212
1764098,1608630378.884,8213
1764099,1608630378.886,8213
1764100,1608630378.888,8214
1764101,1608630378.89,8216
1764102,1608630378.892,8217
1764103,1608630378.894,8218
1764104,1608630378.896,8219
1764105,1608630378.898,8221
1764106,1608630378.9,8222
1764107,1608630378.902,8223
1764108,1608630378.904,8224
1764109,1608630378.906,8224
1764110,1608630378.908,8225
1764111,1608630378.91,8225
1764112,1608630378.912,8224
1764113,1608630378.914,8224
1764114,1608630378.916,8223
1764115,1608630378.918,8222
1764116,1608630378.92,8220
1764117,1608630378.922,8219
1764118,1608630378.924,8217
1764119,1608630378.926,8216
1764120,1608630378.928,8214
1764121,1608630378.93,8212
1764122,1608630378.932,8210
1764123,1608630378.934,8208
1764124,1608630378.936,8206
1764125,1608630378.938,8204
1764126,1608630378.94,8202
1764127,1608630378.942,8200
1764128,1608630378.944,8198
1764129,1608630378.946,8196
1764130,1608630378.948,8195
1764131,1608630378.95,8194
1764132,1608630378.952,8193
1764133,1608630378.954,8191
1764134,1608630378.956,8190
1764135,1608630378.958,8190
1764136,1608630378.96,8189
1764137,1608630378.962,8188
1764138,1608630378.964,8188
1764139,1608630378.966,8188
1764140,1608630378.968,8187
1764141,1608630378.97,8187
1764142,1608630378.972,8187
1764143,1608630378.974,8187
1764144,1608630378.976,8187
1764145,1608630378.978,8187
1764146,1608630378.98,8187
1764147,1608630378.982,8186
1764148,1608630378.984,8186
1764149,1608630378.986,8186
1764150,1608630378.988,8186
1764151,1608630378.99,8186
1764152,1608630378.992,8186
1764153,1608630378.994,8186
1764154,1608630378.996,8186
1764155,1608630378.998,8186
1764156,1608630379.0,8186
1764157,1608630379.002,8187
1764158,1608630379.004,8188
1764159,1608630379.006,8189
1764160,1608630379.008,8191
1764161,1608630379.01,8194
1764162,1608630379.012,8198
1764163,1608630379.014,8203
1764164,1608630379.016,8209
1764165,1608630379.018,8215
1764166,1608630379.02,8222
1764167,1608630379.022,8227
1764168,1608630379.024,8231
1764169,1608630379.026,8232
1764170,1608630379.028,8230
1764171,1608630379.03,8224
1764172,1608630379.032,8213
1764173,1608630379.034,8197
1764174,1608630379.036,8179
1764175,1608630379.038,8159
1764176,1608630379.04,8139
1764177,1608630379.042,8119
1764178,1608630379.044,8101
1764179,1608630379.046,8086
1764180,1608630379.048,8074
1764181,1608630379.05,8065
1764182,1608630379.052,8060
1764183,1608630379.054,8057
1764184,1608630379.056,8057
1764185,1608630379.058,8059
1764186,1608630379.06,8062
1764187,1608630379.062,8067
1764188,1608630379.064,8073
1764189,1608630379.066,8081
1764190,1608630379.068,8090
1764191,1608630379.07,8100
1764192,1608630379.072,8110
1764193,1608630379.074,8120
1764194,1608630379.076,8129
1764195,1608630379.078,8138
1764196,1608630379.08,8146
1764197,1608630379.082,8153
1764198,1608630379.084,8159
1764199,1608630379.086,8165
1764200,1608630379.088,8169
1764201,1608630379.09,8173
1764202,1608630379.092,8177
1764203,1608630379.094,8180
1764204,1608630379.096,8182
1764205,1608630379.098,8184
1764206,1608630379.1,8185
1764207,1608630379.102,8186
1764208,1608630379.104,8187
1764209,1608630379.106,8188
1764210,1608630379.108,8188
1764211,1608630379.11,8188
1764212,1608630379.112,8188
1764213,1608630379.114,8188
1764214,1608630379.116,8188
1764215,1608630379.118,8188
1764216,1608630379.12,8188
1764217,1608630379.122,8188
1764218,1608630379.124,8188
1764219,1608630379.126,8188
1764220,1608630379.128,8187
1764221,1608630379.13,8187
1764222,1608630379.132,8187
1764223,1608630379.134,8187
1764224,1608630379.136,8188
1764225,1608630379.138,8188
1764226,1608630379.14,8188
1764227,1608630379.142,8188
1764228,1608630379.144,8189
1764229,1608630379.146,8189
1764230,1608630379.148,8189
1764231,1608630379.15,8189
1764232,1608630379.152,8190
1764233,1608630379.154,8190
1764234,1608630379.156,8191
1764235,1608630379.158,8191
1764236,1608630379.16,8192
1764237,1608630379.162,8193
1764238,1608630379.164,8194
1764239,1608630379.166,8195
1764240,1608630379.168,8196
1764241,1608630379.17,8198
1764242,1608630379.172,8199
1764243,1608630379.174,8201
1764244,1608630379.176,8202
1764245,1608630379.178,8204
1764246,1608630379.18,8206
1764247,1608630379.182,8207
1764248,1608630379.184,8209
1764249,1608630379.186,8211
1764250,1608630379.188,8213
1764251,1608630379.19,8215
1764252,1608630379.192,8216
1764253,1608630379.194,8218
1764254,1608630379.196,8220
1764255,1608630379.198,8221
1764256,1608630379.2,8223
1764257,1608630379.202,8224
1764258,1608630379.204,8225
1764259,1608630379.206,8227
1764260,1608630379.208,8228
1764261,1608630379.21,8229
1764262,1608630379.212,8230
1764263,1608630379.214,8231
1764264,1608630379.216,8231
1764265,1608630379.218,8232
1764266,1608630379.22,8232
1764267,1608630379.222,8232
1764268,1608630379.224,8232
1764269,1608630379.226,8232
1764270,1608630379.228,8231
1764271,1608630379.23,8231
1764272,1608630379.232,8231
1764273,1608630379.234,8230
1764274,1608630379.236,8229
1764275,1608630379.238,8228
1764276,1608630379.24,8227
1764277,1608630379.242,8226
1764278,1608630379.244,8225
1764279,1608630379.246,8223
1764280,1608630379.248,8221
1764281,1608630379.25,8220
1764282,1608630379.252,8219
1764283,1608630379.254,8217
1764284,1608630379.256,8216
1764285,1608630379.258,8215
1764286,1608630379.26,8214
1764287,1608630379.262,8213
1764288,1608630379.264,8213
1764289,1608630379.266,8212
1764290,1608630379.268,8212
1764291,1608630379.27,8212
1764292,1608630379.272,8212
1764293,1608630379.274,8213
1764294,1608630379.276,8213
1764295,1608630379.278,8214
1764296,1608630379.28,8215
1764297,1608630379.282,8216
1764298,1608630379.284,8218
1764299,1608630379.286,8219
1764300,1608630379.288,8220
1764301,1608630379.29,8220
1764302,1608630379.292,8221
1764303,1608630379.294,8222
1764304,1608630379.296,8223
1764305,1608630379.298,8223
1764306,1608630379.3,8223
1764307,1608630379.302,8223
1764308,1608630379.304,8222
1764309,1608630379.306,8221
1764310,1608630379.308,8220
1764311,1608630379.31,8219
1764312,1608630379.312,8217
1764313,1608630379.314,8216
1764314,1608630379.316,8214
1764315,1608630379.318,8212
1764316,1608630379.32,8210
1764317,1608630379.322,8208
1764318,1608630379.324,8206
