,times,values
1760000,1634745521.424,8127
1760001,1634745521.426,8129
1760002,1634745521.428,8131
1760003,1634745521.43,8133
1760004,1634745521.432,8135
1760005,1634745521.434,8137
1760006,1634745521.436,8138
1760007,1634745521.438,8139
1760008,1634745521.44,8140
1760009,1634745521.442,8142
1760010,1634745521.444,8143
1760011,1634745521.446,8145
1760012,1634745521.448,8148
1760013,1634745521.45,8149
1760014,1634745521.452,8151
1760015,1634745521.454,8153
1760016,1634745521.456,8154
1760017,1634745521.458,8156
1760018,1634745521.46,8157
1760019,1634745521.462,8159
1760020,1634745521.464,8160
1760021,1634745521.466,8162
1760022,1634745521.468,8164
1760023,1634745521.47,8167
1760024,1634745521.472,8169
1760025,1634745521.474,8172
1760026,1634745521.476,8174
1760027,1634745521.478,8177
1760028,1634745521.48,8180
1760029,1634745521.482,8182
1760030,1634745521.484,8185
1760031,1634745521.486,8187
1760032,1634745521.488,8190
1760033,1634745521.49,8192
1760034,1634745521.492,8195
1760035,1634745521.494,8197
1760036,1634745521.496,8200
1760037,1634745521.498,8202
1760038,1634745521.5,8204
1760039,1634745521.502,8206
1760040,1634745521.504,8208
1760041,1634745521.506,8209
1760042,1634745521.508,8210
1760043,1634745521.51,8211
1760044,1634745521.512,8212
1760045,1634745521.514,8213
1760046,1634745521.516,8215
1760047,1634745521.518,8216
1760048,1634745521.52,8217
1760049,1634745521.522,8218
1760050,1634745521.524,8219
1760051,1634745521.526,8220
1760052,1634745521.528,8222
1760053,1634745521.53,8224
1760054,1634745521.532,8226
1760055,1634745521.534,8228
1760056,1634745521.536,8230
1760057,1634745521.538,8232
1760058,1634745521.54,8234
1760059,1634745521.542,8236
1760060,1634745521.544,8238
1760061,1634745521.546,8239
1760062,1634745521.548,8239
1760063,1634745521.55,8238
1760064,1634745521.552,8237
1760065,1634745521.554,8234
1760066,1634745521.556,8231
1760067,1634745521.558,8228
1760068,1634745521.56,8224
1760069,1634745521.562,8221
1760070,1634745521.564,8217
1760071,1634745521.566,8214
1760072,1634745521.568,8211
1760073,1634745521.57,8209
1760074,1634745521.572,8208
1760075,1634745521.574,8206
1760076,1634745521.576,8205
1760077,1634745521.578,8204
1760078,1634745521.58,8203
1760079,1634745521.582,8202
1760080,1634745521.584,8201
1760081,1634745521.586,8200
1760082,1634745521.588,8200
1760083,1634745521.59,8199
1760084,1634745521.592,8199
1760085,1634745521.594,8199
1760086,1634745521.596,8199
1760087,1634745521.598,8199
1760088,1634745521.6,8198
1760089,1634745521.602,8198
1760090,1634745521.604,8198
1760091,1634745521.606,8198
1760092,1634745521.608,8199
1760093,1634745521.61,8199
1760094,1634745521.612,8199
1760095,1634745521.614,8198
1760096,1634745521.616,8198
1760097,1634745521.618,8198
1760098,1634745521.62,8198
1760099,1634745521.622,8198
1760100,1634745521.624,8198
1760101,1634745521.626,8198
1760102,1634745521.628,8198
1760103,1634745521.63,8198
1760104,1634745521.632,8198
1760105,1634745521.634,8197
1760106,1634745521.636,8197
1760107,1634745521.638,8198
1760108,1634745521.64,8198
1760109,1634745521.642,8198
1760110,1634745521.644,8197
1760111,1634745521.646,8197
1760112,1634745521.648,8198
1760113,1634745521.65,8199
1760114,1634745521.652,8200
1760115,1634745521.654,8201
1760116,1634745521.656,8201
1760117,1634745521.658,8201
1760118,1634745521.66,8201
1760119,1634745521.662,8201
1760120,1634745521.664,8202
1760121,1634745521.666,8202
1760122,1634745521.668,8204
1760123,1634745521.67,8205
1760124,1634745521.672,8206
1760125,1634745521.674,8208
1760126,1634745521.676,8209
1760127,1634745521.678,8211
1760128,1634745521.68,8214
1760129,1634745521.682,8217
1760130,1634745521.684,8221
1760131,1634745521.686,8225
1760132,1634745521.688,8226
1760133,1634745521.69,8226
1760134,1634745521.692,8225
1760135,1634745521.694,8223
1760136,1634745521.696,8221
1760137,1634745521.698,8219
1760138,1634745521.7,8216
1760139,1634745521.702,8211
1760140,1634745521.704,8206
1760141,1634745521.706,8201
1760142,1634745521.708,8196
1760143,1634745521.71,8192
1760144,1634745521.712,8189
1760145,1634745521.714,8187
1760146,1634745521.716,8185
1760147,1634745521.718,8185
1760148,1634745521.72,8185
1760149,1634745521.722,8185
1760150,1634745521.724,8186
1760151,1634745521.726,8186
1760152,1634745521.728,8186
1760153,1634745521.73,8186
1760154,1634745521.732,8187
1760155,1634745521.734,8187
1760156,1634745521.736,8187
1760157,1634745521.738,8188
1760158,1634745521.74,8188
1760159,1634745521.742,8188
1760160,1634745521.744,8188
1760161,1634745521.746,8188
1760162,1634745521.748,8188
1760163,1634745521.75,8188
1760164,1634745521.752,8187
1760165,1634745521.754,8182
1760166,1634745521.756,8169
1760167,1634745521.758,8146
1760168,1634745521.76,8119
1760169,1634745521.762,8095
1760170,1634745521.764,8081
1760171,1634745521.766,8074
1760172,1634745521.768,8072
1760173,1634745521.77,8074
1760174,1634745521.772,8086
1760175,1634745521.774,8119
1760176,1634745521.776,8185
1760177,1634745521.778,8271
1760178,1634745521.78,8348
1760179,1634745521.782,8398
1760180,1634745521.784,8422
1760181,1634745521.786,8424
1760182,1634745521.788,8405
1760183,1634745521.79,8362
1760184,1634745521.792,8301
1760185,1634745521.794,8240
1760186,1634745521.796,8195
1760187,1634745521.798,8172
1760188,1634745521.8,8168
1760189,1634745521.802,8174
1760190,1634745521.804,8182
1760191,1634745521.806,8188
1760192,1634745521.808,8190
1760193,1634745521.81,8188
1760194,1634745521.812,8186
1760195,1634745521.814,8183
1760196,1634745521.816,8180
1760197,1634745521.818,8178
1760198,1634745521.82,8177
1760199,1634745521.822,8176
1760200,1634745521.824,8176
1760201,1634745521.826,8176
1760202,1634745521.828,8176
1760203,1634745521.83,8176
1760204,1634745521.832,8176
1760205,1634745521.834,8176
1760206,1634745521.836,8176
1760207,1634745521.838,8177
1760208,1634745521.84,8177
1760209,1634745521.842,8177
1760210,1634745521.844,8177
1760211,1634745521.846,8177
1760212,1634745521.848,8178
1760213,1634745521.85,8178
1760214,1634745521.852,8179
1760215,1634745521.854,8179
1760216,1634745521.856,8180
1760217,1634745521.858,8180
1760218,1634745521.86,8181
1760219,1634745521.862,8181
1760220,1634745521.864,8181
1760221,1634745521.866,8181
1760222,1634745521.868,8182
1760223,1634745521.87,8183
1760224,1634745521.872,8183
1760225,1634745521.874,8183
1760226,1634745521.876,8184
1760227,1634745521.878,8184
1760228,1634745521.88,8185
1760229,1634745521.882,8185
1760230,1634745521.884,8186
1760231,1634745521.886,8187
1760232,1634745521.888,8187
1760233,1634745521.89,8188
1760234,1634745521.892,8189
1760235,1634745521.894,8191
1760236,1634745521.896,8192
1760237,1634745521.898,8193
1760238,1634745521.9,8193
1760239,1634745521.902,8194
1760240,1634745521.904,8196
1760241,1634745521.906,8197
1760242,1634745521.908,8199
1760243,1634745521.91,8201
1760244,1634745521.912,8202
1760245,1634745521.914,8204
1760246,1634745521.916,8206
1760247,1634745521.918,8208
1760248,1634745521.92,8210
1760249,1634745521.922,8211
1760250,1634745521.924,8212
1760251,1634745521.926,8213
1760252,1634745521.928,8214
1760253,1634745521.93,8215
1760254,1634745521.932,8216
1760255,1634745521.934,8217
1760256,1634745521.936,8218
1760257,1634745521.938,8218
1760258,1634745521.94,8219
1760259,1634745521.942,8219
1760260,1634745521.944,8219
1760261,1634745521.946,8219
1760262,1634745521.948,8220
1760263,1634745521.95,8221
1760264,1634745521.952,8222
1760265,1634745521.954,8223
1760266,1634745521.956,8225
1760267,1634745521.958,8228
1760268,1634745521.96,8230
1760269,1634745521.962,8232
1760270,1634745521.964,8235
1760271,1634745521.966,8238
1760272,1634745521.968,8240
1760273,1634745521.97,8242
1760274,1634745521.972,8244
1760275,1634745521.974,8244
1760276,1634745521.976,8244
1760277,1634745521.978,8243
1760278,1634745521.98,8241
1760279,1634745521.982,8238
1760280,1634745521.984,8235
1760281,1634745521.986,8232
1760282,1634745521.988,8228
1760283,1634745521.99,8225
1760284,1634745521.992,8222
1760285,1634745521.994,8219
1760286,1634745521.996,8217
1760287,1634745521.998,8215
1760288,1634745522.0,8212
1760289,1634745522.002,8210
1760290,1634745522.004,8208
1760291,1634745522.006,8205
1760292,1634745522.008,8203
1760293,1634745522.01,8200
1760294,1634745522.012,8196
1760295,1634745522.014,8193
1760296,1634745522.016,8190
1760297,1634745522.018,8189
1760298,1634745522.02,8188
1760299,1634745522.022,8189
1760300,1634745522.024,8189
1760301,1634745522.026,8190
1760302,1634745522.028,8190
1760303,1634745522.03,8191
1760304,1634745522.032,8191
1760305,1634745522.034,8191
1760306,1634745522.036,8191
1760307,1634745522.038,8191
1760308,1634745522.04,8191
1760309,1634745522.042,8192
1760310,1634745522.044,8192
1760311,1634745522.046,8192
1760312,1634745522.048,8193
1760313,1634745522.05,8193
1760314,1634745522.052,8193
1760315,1634745522.054,8192
1760316,1634745522.056,8192
1760317,1634745522.058,8192
1760318,1634745522.06,8193
1760319,1634745522.062,8193
1760320,1634745522.064,8193
1760321,1634745522.066,8193
1760322,1634745522.068,8193
1760323,1634745522.07,8193
1760324,1634745522.072,8194
1760325,1634745522.074,8194
1760326,1634745522.076,8195
1760327,1634745522.078,8196
1760328,1634745522.08,8197
1760329,1634745522.082,8198
1760330,1634745522.084,8199
1760331,1634745522.086,8200
1760332,1634745522.088,8201
1760333,1634745522.09,8201
1760334,1634745522.092,8202
1760335,1634745522.094,8203
1760336,1634745522.096,8204
1760337,1634745522.098,8204
1760338,1634745522.1,8205
1760339,1634745522.102,8207
1760340,1634745522.104,8209
1760341,1634745522.106,8211
1760342,1634745522.108,8216
1760343,1634745522.11,8221
1760344,1634745522.112,8225
1760345,1634745522.114,8227
1760346,1634745522.116,8227
1760347,1634745522.118,8226
1760348,1634745522.12,8224
1760349,1634745522.122,8221
1760350,1634745522.124,8217
1760351,1634745522.126,8211
1760352,1634745522.128,8204
1760353,1634745522.13,8196
1760354,1634745522.132,8188
1760355,1634745522.134,8181
1760356,1634745522.136,8175
1760357,1634745522.138,8170
1760358,1634745522.14,8166
1760359,1634745522.142,8164
1760360,1634745522.144,8162
1760361,1634745522.146,8162
1760362,1634745522.148,8163
1760363,1634745522.15,8164
1760364,1634745522.152,8166
1760365,1634745522.154,8167
1760366,1634745522.156,8168
1760367,1634745522.158,8169
1760368,1634745522.16,8170
1760369,1634745522.162,8170
1760370,1634745522.164,8170
1760371,1634745522.166,8171
1760372,1634745522.168,8171
1760373,1634745522.17,8172
1760374,1634745522.172,8173
1760375,1634745522.174,8173
1760376,1634745522.176,8173
1760377,1634745522.178,8173
1760378,1634745522.18,8171
1760379,1634745522.182,8164
1760380,1634745522.184,8148
1760381,1634745522.186,8123
1760382,1634745522.188,8095
1760383,1634745522.19,8074
1760384,1634745522.192,8063
1760385,1634745522.194,8059
1760386,1634745522.196,8061
1760387,1634745522.198,8069
1760388,1634745522.2,8090
1760389,1634745522.202,8137
1760390,1634745522.204,8216
1760391,1634745522.206,8308
1760392,1634745522.208,8382
1760393,1634745522.21,8424
1760394,1634745522.212,8434
1760395,1634745522.214,8419
1760396,1634745522.216,8380
1760397,1634745522.218,8319
1760398,1634745522.22,8251
1760399,1634745522.222,8194
1760400,1634745522.224,8160
1760401,1634745522.226,8148
1760402,1634745522.228,8152
1760403,1634745522.23,8161
1760404,1634745522.232,8169
1760405,1634745522.234,8174
1760406,1634745522.236,8174
1760407,1634745522.238,8172
1760408,1634745522.24,8170
1760409,1634745522.242,8167
1760410,1634745522.244,8165
1760411,1634745522.246,8163
1760412,1634745522.248,8162
1760413,1634745522.25,8162
1760414,1634745522.252,8162
1760415,1634745522.254,8163
1760416,1634745522.256,8163
1760417,1634745522.258,8163
1760418,1634745522.26,8163
1760419,1634745522.262,8163
1760420,1634745522.264,8164
1760421,1634745522.266,8164
1760422,1634745522.268,8164
1760423,1634745522.27,8164
1760424,1634745522.272,8164
1760425,1634745522.274,8165
1760426,1634745522.276,8165
1760427,1634745522.278,8165
1760428,1634745522.28,8166
1760429,1634745522.282,8166
1760430,1634745522.284,8167
1760431,1634745522.286,8167
1760432,1634745522.288,8167
1760433,1634745522.29,8167
1760434,1634745522.292,8168
1760435,1634745522.294,8168
1760436,1634745522.296,8169
1760437,1634745522.298,8170
1760438,1634745522.3,8170
1760439,1634745522.302,8171
1760440,1634745522.304,8171
1760441,1634745522.306,8172
1760442,1634745522.308,8172
1760443,1634745522.31,8173
1760444,1634745522.312,8174
1760445,1634745522.314,8175
1760446,1634745522.316,8176
1760447,1634745522.318,8177
1760448,1634745522.32,8179
1760449,1634745522.322,8180
1760450,1634745522.324,8181
1760451,1634745522.326,8183
1760452,1634745522.328,8184
1760453,1634745522.33,8185
1760454,1634745522.332,8186
1760455,1634745522.334,8187
1760456,1634745522.336,8189
1760457,1634745522.338,8191
1760458,1634745522.34,8193
1760459,1634745522.342,8195
1760460,1634745522.344,8197
1760461,1634745522.346,8199
1760462,1634745522.348,8201
1760463,1634745522.35,8202
1760464,1634745522.352,8204
1760465,1634745522.354,8205
1760466,1634745522.356,8207
1760467,1634745522.358,8208
1760468,1634745522.36,8209
1760469,1634745522.362,8210
1760470,1634745522.364,8211
1760471,1634745522.366,8212
1760472,1634745522.368,8213
1760473,1634745522.37,8214
1760474,1634745522.372,8215
1760475,1634745522.374,8215
1760476,1634745522.376,8216
1760477,1634745522.378,8217
1760478,1634745522.38,8218
1760479,1634745522.382,8220
1760480,1634745522.384,8221
1760481,1634745522.386,8222
1760482,1634745522.388,8225
1760483,1634745522.39,8227
1760484,1634745522.392,8229
1760485,1634745522.394,8231
1760486,1634745522.396,8233
1760487,1634745522.398,8235
1760488,1634745522.4,8235
1760489,1634745522.402,8235
1760490,1634745522.404,8234
1760491,1634745522.406,8233
1760492,1634745522.408,8231
1760493,1634745522.41,8228
1760494,1634745522.412,8225
1760495,1634745522.414,8221
1760496,1634745522.416,8218
1760497,1634745522.418,8215
1760498,1634745522.42,8212
1760499,1634745522.422,8209
1760500,1634745522.424,8207
1760501,1634745522.426,8205
1760502,1634745522.428,8203
1760503,1634745522.43,8202
1760504,1634745522.432,8201
1760505,1634745522.434,8200
1760506,1634745522.436,8198
1760507,1634745522.438,8197
1760508,1634745522.44,8197
1760509,1634745522.442,8197
1760510,1634745522.444,8196
1760511,1634745522.446,8196
1760512,1634745522.448,8195
1760513,1634745522.45,8195
1760514,1634745522.452,8195
1760515,1634745522.454,8194
1760516,1634745522.456,8194
1760517,1634745522.458,8194
1760518,1634745522.46,8194
1760519,1634745522.462,8194
1760520,1634745522.464,8194
1760521,1634745522.466,8194
1760522,1634745522.468,8194
1760523,1634745522.47,8194
1760524,1634745522.472,8194
1760525,1634745522.474,8194
1760526,1634745522.476,8194
1760527,1634745522.478,8193
1760528,1634745522.48,8193
1760529,1634745522.482,8193
1760530,1634745522.484,8193
1760531,1634745522.486,8193
1760532,1634745522.488,8192
1760533,1634745522.49,8192
1760534,1634745522.492,8192
1760535,1634745522.494,8192
1760536,1634745522.496,8191
1760537,1634745522.498,8191
1760538,1634745522.5,8191
1760539,1634745522.502,8190
1760540,1634745522.504,8190
1760541,1634745522.506,8190
1760542,1634745522.508,8191
1760543,1634745522.51,8192
1760544,1634745522.512,8193
1760545,1634745522.514,8193
1760546,1634745522.516,8193
1760547,1634745522.518,8193
1760548,1634745522.52,8193
1760549,1634745522.522,8194
1760550,1634745522.524,8195
1760551,1634745522.526,8197
1760552,1634745522.528,8198
1760553,1634745522.53,8200
1760554,1634745522.532,8202
1760555,1634745522.534,8204
1760556,1634745522.536,8208
1760557,1634745522.538,8213
1760558,1634745522.54,8217
1760559,1634745522.542,8220
1760560,1634745522.544,8221
1760561,1634745522.546,8220
1760562,1634745522.548,8218
1760563,1634745522.55,8216
1760564,1634745522.552,8213
1760565,1634745522.554,8210
1760566,1634745522.556,8205
1760567,1634745522.558,8200
1760568,1634745522.56,8195
1760569,1634745522.562,8190
1760570,1634745522.564,8186
1760571,1634745522.566,8182
1760572,1634745522.568,8180
1760573,1634745522.57,8178
1760574,1634745522.572,8177
1760575,1634745522.574,8177
1760576,1634745522.576,8176
1760577,1634745522.578,8176
1760578,1634745522.58,8176
1760579,1634745522.582,8176
1760580,1634745522.584,8176
1760581,1634745522.586,8176
1760582,1634745522.588,8176
1760583,1634745522.59,8175
1760584,1634745522.592,8175
1760585,1634745522.594,8175
1760586,1634745522.596,8176
1760587,1634745522.598,8176
1760588,1634745522.6,8177
1760589,1634745522.602,8177
1760590,1634745522.604,8177
1760591,1634745522.606,8176
1760592,1634745522.608,8174
1760593,1634745522.61,8166
1760594,1634745522.612,8151
1760595,1634745522.614,8128
1760596,1634745522.616,8101
1760597,1634745522.618,8081
1760598,1634745522.62,8069
1760599,1634745522.622,8064
1760600,1634745522.624,8065
1760601,1634745522.626,8074
1760602,1634745522.628,8097
1760603,1634745522.63,8147
1760604,1634745522.632,8226
1760605,1634745522.634,8310
1760606,1634745522.636,8375
1760607,1634745522.638,8410
1760608,1634745522.64,8419
1760609,1634745522.642,8406
1760610,1634745522.644,8370
1760611,1634745522.646,8313
1760612,1634745522.648,8247
1760613,1634745522.65,8191
1760614,1634745522.652,8157
1760615,1634745522.654,8147
1760616,1634745522.656,8151
1760617,1634745522.658,8161
1760618,1634745522.66,8169
1760619,1634745522.662,8175
1760620,1634745522.664,8176
1760621,1634745522.666,8174
1760622,1634745522.668,8171
1760623,1634745522.67,8168
1760624,1634745522.672,8166
1760625,1634745522.674,8164
1760626,1634745522.676,8163
1760627,1634745522.678,8163
1760628,1634745522.68,8163
1760629,1634745522.682,8163
1760630,1634745522.684,8163
1760631,1634745522.686,8163
1760632,1634745522.688,8164
1760633,1634745522.69,8164
1760634,1634745522.692,8164
1760635,1634745522.694,8164
1760636,1634745522.696,8165
1760637,1634745522.698,8165
1760638,1634745522.7,8165
1760639,1634745522.702,8166
1760640,1634745522.704,8166
1760641,1634745522.706,8167
1760642,1634745522.708,8167
1760643,1634745522.71,8167
1760644,1634745522.712,8168
1760645,1634745522.714,8168
1760646,1634745522.716,8169
1760647,1634745522.718,8169
1760648,1634745522.72,8170
1760649,1634745522.722,8170
1760650,1634745522.724,8170
1760651,1634745522.726,8170
1760652,1634745522.728,8171
1760653,1634745522.73,8172
1760654,1634745522.732,8173
1760655,1634745522.734,8173
1760656,1634745522.736,8174
1760657,1634745522.738,8175
1760658,1634745522.74,8175
1760659,1634745522.742,8176
1760660,1634745522.744,8177
1760661,1634745522.746,8178
1760662,1634745522.748,8179
1760663,1634745522.75,8180
1760664,1634745522.752,8181
1760665,1634745522.754,8182
1760666,1634745522.756,8184
1760667,1634745522.758,8185
1760668,1634745522.76,8187
1760669,1634745522.762,8188
1760670,1634745522.764,8190
1760671,1634745522.766,8191
1760672,1634745522.768,8193
1760673,1634745522.77,8195
1760674,1634745522.772,8197
1760675,1634745522.774,8199
1760676,1634745522.776,8200
1760677,1634745522.778,8202
1760678,1634745522.78,8203
1760679,1634745522.782,8204
1760680,1634745522.784,8206
1760681,1634745522.786,8207
1760682,1634745522.788,8208
1760683,1634745522.79,8209
1760684,1634745522.792,8210
1760685,1634745522.794,8211
1760686,1634745522.796,8212
1760687,1634745522.798,8213
1760688,1634745522.8,8214
1760689,1634745522.802,8215
1760690,1634745522.804,8215
1760691,1634745522.806,8216
1760692,1634745522.808,8217
1760693,1634745522.81,8219
1760694,1634745522.812,8220
1760695,1634745522.814,8223
1760696,1634745522.816,8225
1760697,1634745522.818,8227
1760698,1634745522.82,8229
1760699,1634745522.822,8231
1760700,1634745522.824,8233
1760701,1634745522.826,8234
1760702,1634745522.828,8235
1760703,1634745522.83,8235
1760704,1634745522.832,8234
1760705,1634745522.834,8232
1760706,1634745522.836,8230
1760707,1634745522.838,8227
1760708,1634745522.84,8224
1760709,1634745522.842,8220
1760710,1634745522.844,8216
1760711,1634745522.846,8212
1760712,1634745522.848,8209
1760713,1634745522.85,8206
1760714,1634745522.852,8204
1760715,1634745522.854,8201
1760716,1634745522.856,8199
1760717,1634745522.858,8197
1760718,1634745522.86,8196
1760719,1634745522.862,8195
1760720,1634745522.864,8194
1760721,1634745522.866,8193
1760722,1634745522.868,8192
1760723,1634745522.87,8192
1760724,1634745522.872,8191
1760725,1634745522.874,8191
1760726,1634745522.876,8190
1760727,1634745522.878,8190
1760728,1634745522.88,8189
1760729,1634745522.882,8189
1760730,1634745522.884,8188
1760731,1634745522.886,8188
1760732,1634745522.888,8188
1760733,1634745522.89,8188
1760734,1634745522.892,8188
1760735,1634745522.894,8188
1760736,1634745522.896,8188
1760737,1634745522.898,8188
1760738,1634745522.9,8187
1760739,1634745522.902,8188
1760740,1634745522.904,8188
1760741,1634745522.906,8188
1760742,1634745522.908,8188
1760743,1634745522.91,8188
1760744,1634745522.912,8188
1760745,1634745522.914,8188
1760746,1634745522.916,8188
1760747,1634745522.918,8188
1760748,1634745522.92,8188
1760749,1634745522.922,8188
1760750,1634745522.924,8187
1760751,1634745522.926,8187
1760752,1634745522.928,8188
1760753,1634745522.93,8188
1760754,1634745522.932,8188
1760755,1634745522.934,8189
1760756,1634745522.936,8190
1760757,1634745522.938,8191
1760758,1634745522.94,8191
1760759,1634745522.942,8192
1760760,1634745522.944,8192
1760761,1634745522.946,8192
1760762,1634745522.948,8193
1760763,1634745522.95,8194
1760764,1634745522.952,8195
1760765,1634745522.954,8196
1760766,1634745522.956,8197
1760767,1634745522.958,8199
1760768,1634745522.96,8201
1760769,1634745522.962,8203
1760770,1634745522.964,8206
1760771,1634745522.966,8211
1760772,1634745522.968,8215
1760773,1634745522.97,8219
1760774,1634745522.972,8220
1760775,1634745522.974,8220
1760776,1634745522.976,8219
1760777,1634745522.978,8217
1760778,1634745522.98,8215
1760779,1634745522.982,8211
1760780,1634745522.984,8207
1760781,1634745522.986,8202
1760782,1634745522.988,8197
1760783,1634745522.99,8192
1760784,1634745522.992,8188
1760785,1634745522.994,8185
1760786,1634745522.996,8182
1760787,1634745522.998,8180
1760788,1634745523.0,8178
1760789,1634745523.002,8177
1760790,1634745523.004,8177
1760791,1634745523.006,8177
1760792,1634745523.008,8177
1760793,1634745523.01,8177
1760794,1634745523.012,8177
1760795,1634745523.014,8178
1760796,1634745523.016,8178
1760797,1634745523.018,8178
1760798,1634745523.02,8178
1760799,1634745523.022,8178
1760800,1634745523.024,8177
1760801,1634745523.026,8177
1760802,1634745523.028,8176
1760803,1634745523.03,8176
1760804,1634745523.032,8176
1760805,1634745523.034,8176
1760806,1634745523.036,8175
1760807,1634745523.038,8168
1760808,1634745523.04,8151
1760809,1634745523.042,8126
1760810,1634745523.044,8099
1760811,1634745523.046,8079
1760812,1634745523.048,8068
1760813,1634745523.05,8064
1760814,1634745523.052,8065
1760815,1634745523.054,8071
1760816,1634745523.056,8091
1760817,1634745523.058,8137
1760818,1634745523.06,8211
1760819,1634745523.062,8294
1760820,1634745523.064,8360
1760821,1634745523.066,8396
1760822,1634745523.068,8406
1760823,1634745523.07,8396
1760824,1634745523.072,8365
1760825,1634745523.074,8312
1760826,1634745523.076,8250
1760827,1634745523.078,8195
1760828,1634745523.08,8160
1760829,1634745523.082,8148
1760830,1634745523.084,8150
1760831,1634745523.086,8160
1760832,1634745523.088,8169
1760833,1634745523.09,8176
1760834,1634745523.092,8177
1760835,1634745523.094,8176
1760836,1634745523.096,8172
1760837,1634745523.098,8169
1760838,1634745523.1,8167
1760839,1634745523.102,8165
1760840,1634745523.104,8165
1760841,1634745523.106,8165
1760842,1634745523.108,8165
1760843,1634745523.11,8165
1760844,1634745523.112,8164
1760845,1634745523.114,8165
1760846,1634745523.116,8165
1760847,1634745523.118,8165
1760848,1634745523.12,8165
1760849,1634745523.122,8166
1760850,1634745523.124,8166
1760851,1634745523.126,8166
1760852,1634745523.128,8167
1760853,1634745523.13,8167
1760854,1634745523.132,8167
1760855,1634745523.134,8168
1760856,1634745523.136,8168
1760857,1634745523.138,8169
1760858,1634745523.14,8169
1760859,1634745523.142,8170
1760860,1634745523.144,8170
1760861,1634745523.146,8171
1760862,1634745523.148,8172
1760863,1634745523.15,8172
1760864,1634745523.152,8173
1760865,1634745523.154,8173
1760866,1634745523.156,8173
1760867,1634745523.158,8174
1760868,1634745523.16,8175
1760869,1634745523.162,8175
1760870,1634745523.164,8176
1760871,1634745523.166,8177
1760872,1634745523.168,8178
1760873,1634745523.17,8179
1760874,1634745523.172,8180
1760875,1634745523.174,8181
1760876,1634745523.176,8182
1760877,1634745523.178,8183
1760878,1634745523.18,8184
1760879,1634745523.182,8185
1760880,1634745523.184,8186
1760881,1634745523.186,8187
1760882,1634745523.188,8189
1760883,1634745523.19,8190
1760884,1634745523.192,8192
1760885,1634745523.194,8193
1760886,1634745523.196,8195
1760887,1634745523.198,8197
1760888,1634745523.2,8199
1760889,1634745523.202,8201
1760890,1634745523.204,8202
1760891,1634745523.206,8203
1760892,1634745523.208,8205
1760893,1634745523.21,8206
1760894,1634745523.212,8207
1760895,1634745523.214,8209
1760896,1634745523.216,8210
1760897,1634745523.218,8211
1760898,1634745523.22,8212
1760899,1634745523.222,8213
1760900,1634745523.224,8214
1760901,1634745523.226,8215
1760902,1634745523.228,8215
1760903,1634745523.23,8216
1760904,1634745523.232,8216
1760905,1634745523.234,8217
1760906,1634745523.236,8218
1760907,1634745523.238,8220
1760908,1634745523.24,8222
1760909,1634745523.242,8224
1760910,1634745523.244,8227
1760911,1634745523.246,8229
1760912,1634745523.248,8231
1760913,1634745523.25,8233
1760914,1634745523.252,8235
1760915,1634745523.254,8236
1760916,1634745523.256,8236
1760917,1634745523.258,8236
1760918,1634745523.26,8235
1760919,1634745523.262,8233
1760920,1634745523.264,8231
1760921,1634745523.266,8227
1760922,1634745523.268,8224
1760923,1634745523.27,8220
1760924,1634745523.272,8216
1760925,1634745523.274,8212
1760926,1634745523.276,8209
1760927,1634745523.278,8206
1760928,1634745523.28,8203
1760929,1634745523.282,8201
1760930,1634745523.284,8199
1760931,1634745523.286,8197
1760932,1634745523.288,8195
1760933,1634745523.29,8194
1760934,1634745523.292,8193
1760935,1634745523.294,8192
1760936,1634745523.296,8191
1760937,1634745523.298,8191
1760938,1634745523.3,8190
1760939,1634745523.302,8190
1760940,1634745523.304,8189
1760941,1634745523.306,8189
1760942,1634745523.308,8189
1760943,1634745523.31,8188
1760944,1634745523.312,8188
1760945,1634745523.314,8188
1760946,1634745523.316,8188
1760947,1634745523.318,8188
1760948,1634745523.32,8187
1760949,1634745523.322,8187
1760950,1634745523.324,8187
1760951,1634745523.326,8187
1760952,1634745523.328,8187
1760953,1634745523.33,8187
1760954,1634745523.332,8187
1760955,1634745523.334,8188
1760956,1634745523.336,8188
1760957,1634745523.338,8188
1760958,1634745523.34,8188
1760959,1634745523.342,8188
1760960,1634745523.344,8188
1760961,1634745523.346,8187
1760962,1634745523.348,8187
1760963,1634745523.35,8187
1760964,1634745523.352,8187
1760965,1634745523.354,8187
1760966,1634745523.356,8187
1760967,1634745523.358,8187
1760968,1634745523.36,8188
1760969,1634745523.362,8188
1760970,1634745523.364,8190
1760971,1634745523.366,8191
1760972,1634745523.368,8191
1760973,1634745523.37,8192
1760974,1634745523.372,8192
1760975,1634745523.374,8192
1760976,1634745523.376,8193
1760977,1634745523.378,8194
1760978,1634745523.38,8195
1760979,1634745523.382,8196
1760980,1634745523.384,8197
1760981,1634745523.386,8199
1760982,1634745523.388,8201
1760983,1634745523.39,8204
1760984,1634745523.392,8208
1760985,1634745523.394,8213
1760986,1634745523.396,8218
1760987,1634745523.398,8221
1760988,1634745523.4,8222
1760989,1634745523.402,8221
1760990,1634745523.404,8220
1760991,1634745523.406,8218
1760992,1634745523.408,8216
1760993,1634745523.41,8212
1760994,1634745523.412,8208
1760995,1634745523.414,8203
1760996,1634745523.416,8198
1760997,1634745523.418,8193
1760998,1634745523.42,8190
1760999,1634745523.422,8187
1761000,1634745523.424,8184
1761001,1634745523.426,8183
1761002,1634745523.428,8182
1761003,1634745523.43,8181
1761004,1634745523.432,8181
1761005,1634745523.434,8180
1761006,1634745523.436,8180
1761007,1634745523.438,8180
1761008,1634745523.44,8180
1761009,1634745523.442,8180
1761010,1634745523.444,8180
1761011,1634745523.446,8179
1761012,1634745523.448,8179
1761013,1634745523.45,8178
1761014,1634745523.452,8178
1761015,1634745523.454,8178
1761016,1634745523.456,8178
1761017,1634745523.458,8177
1761018,1634745523.46,8177
1761019,1634745523.462,8177
1761020,1634745523.464,8174
1761021,1634745523.466,8167
1761022,1634745523.468,8150
1761023,1634745523.47,8125
1761024,1634745523.472,8099
1761025,1634745523.474,8079
1761026,1634745523.476,8067
1761027,1634745523.478,8062
1761028,1634745523.48,8063
1761029,1634745523.482,8069
1761030,1634745523.484,8088
1761031,1634745523.486,8132
1761032,1634745523.488,8205
1761033,1634745523.49,8288
1761034,1634745523.492,8354
1761035,1634745523.494,8392
1761036,1634745523.496,8405
1761037,1634745523.498,8395
1761038,1634745523.5,8361
1761039,1634745523.502,8307
1761040,1634745523.504,8247
1761041,1634745523.506,8198
1761042,1634745523.508,8167
1761043,1634745523.51,8155
1761044,1634745523.512,8158
1761045,1634745523.514,8166
1761046,1634745523.516,8174
1761047,1634745523.518,8178
1761048,1634745523.52,8179
1761049,1634745523.522,8177
1761050,1634745523.524,8174
1761051,1634745523.526,8171
1761052,1634745523.528,8169
1761053,1634745523.53,8167
1761054,1634745523.532,8166
1761055,1634745523.534,8165
1761056,1634745523.536,8165
1761057,1634745523.538,8165
1761058,1634745523.54,8165
1761059,1634745523.542,8166
1761060,1634745523.544,8166
1761061,1634745523.546,8166
1761062,1634745523.548,8166
1761063,1634745523.55,8166
1761064,1634745523.552,8166
1761065,1634745523.554,8167
1761066,1634745523.556,8167
1761067,1634745523.558,8167
1761068,1634745523.56,8167
1761069,1634745523.562,8167
1761070,1634745523.564,8168
1761071,1634745523.566,8169
1761072,1634745523.568,8170
1761073,1634745523.57,8170
1761074,1634745523.572,8170
1761075,1634745523.574,8170
1761076,1634745523.576,8171
1761077,1634745523.578,8171
1761078,1634745523.58,8171
1761079,1634745523.582,8172
1761080,1634745523.584,8172
1761081,1634745523.586,8173
1761082,1634745523.588,8174
1761083,1634745523.59,8174
1761084,1634745523.592,8175
1761085,1634745523.594,8176
1761086,1634745523.596,8177
1761087,1634745523.598,8178
1761088,1634745523.6,8180
1761089,1634745523.602,8180
1761090,1634745523.604,8181
1761091,1634745523.606,8183
1761092,1634745523.608,8184
1761093,1634745523.61,8185
1761094,1634745523.612,8186
1761095,1634745523.614,8188
1761096,1634745523.616,8190
1761097,1634745523.618,8192
1761098,1634745523.62,8194
1761099,1634745523.622,8195
1761100,1634745523.624,8197
1761101,1634745523.626,8199
1761102,1634745523.628,8201
1761103,1634745523.63,8203
1761104,1634745523.632,8204
1761105,1634745523.634,8206
1761106,1634745523.636,8207
1761107,1634745523.638,8209
1761108,1634745523.64,8210
1761109,1634745523.642,8211
1761110,1634745523.644,8212
1761111,1634745523.646,8213
1761112,1634745523.648,8213
1761113,1634745523.65,8214
1761114,1634745523.652,8215
1761115,1634745523.654,8216
1761116,1634745523.656,8216
1761117,1634745523.658,8216
1761118,1634745523.66,8217
1761119,1634745523.662,8218
1761120,1634745523.664,8219
1761121,1634745523.666,8221
1761122,1634745523.668,8223
1761123,1634745523.67,8225
1761124,1634745523.672,8227
1761125,1634745523.674,8229
1761126,1634745523.676,8231
1761127,1634745523.678,8232
1761128,1634745523.68,8233
1761129,1634745523.682,8234
1761130,1634745523.684,8235
1761131,1634745523.686,8235
1761132,1634745523.688,8234
1761133,1634745523.69,8232
1761134,1634745523.692,8230
1761135,1634745523.694,8226
1761136,1634745523.696,8222
1761137,1634745523.698,8218
1761138,1634745523.7,8215
1761139,1634745523.702,8212
1761140,1634745523.704,8209
1761141,1634745523.706,8206
1761142,1634745523.708,8203
1761143,1634745523.71,8200
1761144,1634745523.712,8198
1761145,1634745523.714,8196
1761146,1634745523.716,8194
1761147,1634745523.718,8193
1761148,1634745523.72,8192
1761149,1634745523.722,8191
1761150,1634745523.724,8190
1761151,1634745523.726,8190
1761152,1634745523.728,8189
1761153,1634745523.73,8188
1761154,1634745523.732,8188
1761155,1634745523.734,8188
1761156,1634745523.736,8188
1761157,1634745523.738,8187
1761158,1634745523.74,8187
1761159,1634745523.742,8188
1761160,1634745523.744,8188
1761161,1634745523.746,8187
1761162,1634745523.748,8187
1761163,1634745523.75,8187
1761164,1634745523.752,8187
1761165,1634745523.754,8187
1761166,1634745523.756,8187
1761167,1634745523.758,8187
1761168,1634745523.76,8187
1761169,1634745523.762,8186
1761170,1634745523.764,8186
1761171,1634745523.766,8185
1761172,1634745523.768,8185
1761173,1634745523.77,8186
1761174,1634745523.772,8186
1761175,1634745523.774,8187
1761176,1634745523.776,8187
1761177,1634745523.778,8187
1761178,1634745523.78,8186
1761179,1634745523.782,8186
1761180,1634745523.784,8186
1761181,1634745523.786,8186
1761182,1634745523.788,8187
1761183,1634745523.79,8188
1761184,1634745523.792,8189
1761185,1634745523.794,8190
1761186,1634745523.796,8190
1761187,1634745523.798,8190
1761188,1634745523.8,8190
1761189,1634745523.802,8190
1761190,1634745523.804,8191
1761191,1634745523.806,8192
1761192,1634745523.808,8193
1761193,1634745523.81,8194
1761194,1634745523.812,8196
1761195,1634745523.814,8197
1761196,1634745523.816,8199
1761197,1634745523.818,8202
1761198,1634745523.82,8206
1761199,1634745523.822,8211
1761200,1634745523.824,8216
1761201,1634745523.826,8218
1761202,1634745523.828,8218
1761203,1634745523.83,8216
1761204,1634745523.832,8215
1761205,1634745523.834,8212
1761206,1634745523.836,8210
1761207,1634745523.838,8206
1761208,1634745523.84,8201
1761209,1634745523.842,8196
1761210,1634745523.844,8191
1761211,1634745523.846,8187
1761212,1634745523.848,8183
1761213,1634745523.85,8181
1761214,1634745523.852,8178
1761215,1634745523.854,8177
1761216,1634745523.856,8176
1761217,1634745523.858,8176
1761218,1634745523.86,8176
1761219,1634745523.862,8176
1761220,1634745523.864,8176
1761221,1634745523.866,8175
1761222,1634745523.868,8175
1761223,1634745523.87,8175
1761224,1634745523.872,8175
1761225,1634745523.874,8175
1761226,1634745523.876,8175
1761227,1634745523.878,8175
1761228,1634745523.88,8175
1761229,1634745523.882,8176
1761230,1634745523.884,8176
1761231,1634745523.886,8176
1761232,1634745523.888,8176
1761233,1634745523.89,8175
1761234,1634745523.892,8171
1761235,1634745523.894,8160
1761236,1634745523.896,8140
1761237,1634745523.898,8113
1761238,1634745523.9,8088
1761239,1634745523.902,8071
1761240,1634745523.904,8063
1761241,1634745523.906,8061
1761242,1634745523.908,8065
1761243,1634745523.91,8078
1761244,1634745523.912,8113
1761245,1634745523.914,8177
1761246,1634745523.916,8259
1761247,1634745523.918,8338
1761248,1634745523.92,8392
1761249,1634745523.922,8416
1761250,1634745523.924,8415
1761251,1634745523.926,8393
1761252,1634745523.928,8346
1761253,1634745523.93,8283
1761254,1634745523.932,8220
1761255,1634745523.934,8174
1761256,1634745523.936,8151
1761257,1634745523.938,8147
1761258,1634745523.94,8154
1761259,1634745523.942,8163
1761260,1634745523.944,8170
1761261,1634745523.946,8173
1761262,1634745523.948,8173
1761263,1634745523.95,8171
1761264,1634745523.952,8168
1761265,1634745523.954,8165
1761266,1634745523.956,8164
1761267,1634745523.958,8163
1761268,1634745523.96,8162
1761269,1634745523.962,8162
1761270,1634745523.964,8162
1761271,1634745523.966,8162
1761272,1634745523.968,8162
1761273,1634745523.97,8162
1761274,1634745523.972,8163
1761275,1634745523.974,8163
1761276,1634745523.976,8163
1761277,1634745523.978,8163
1761278,1634745523.98,8164
1761279,1634745523.982,8164
1761280,1634745523.984,8165
1761281,1634745523.986,8165
1761282,1634745523.988,8165
1761283,1634745523.99,8166
1761284,1634745523.992,8166
1761285,1634745523.994,8167
1761286,1634745523.996,8167
1761287,1634745523.998,8168
1761288,1634745524.0,8168
1761289,1634745524.002,8168
1761290,1634745524.004,8169
1761291,1634745524.006,8170
1761292,1634745524.008,8170
1761293,1634745524.01,8170
1761294,1634745524.012,8171
1761295,1634745524.014,8171
1761296,1634745524.016,8172
1761297,1634745524.018,8172
1761298,1634745524.02,8173
1761299,1634745524.022,8174
1761300,1634745524.024,8175
1761301,1634745524.026,8176
1761302,1634745524.028,8177
1761303,1634745524.03,8178
1761304,1634745524.032,8178
1761305,1634745524.034,8179
1761306,1634745524.036,8180
1761307,1634745524.038,8181
1761308,1634745524.04,8183
1761309,1634745524.042,8185
1761310,1634745524.044,8187
1761311,1634745524.046,8189
1761312,1634745524.048,8191
1761313,1634745524.05,8192
1761314,1634745524.052,8194
1761315,1634745524.054,8196
1761316,1634745524.056,8198
1761317,1634745524.058,8200
1761318,1634745524.06,8201
1761319,1634745524.062,8203
1761320,1634745524.064,8204
1761321,1634745524.066,8205
1761322,1634745524.068,8206
1761323,1634745524.07,8207
1761324,1634745524.072,8209
1761325,1634745524.074,8211
1761326,1634745524.076,8212
1761327,1634745524.078,8212
1761328,1634745524.08,8213
1761329,1634745524.082,8213
1761330,1634745524.084,8214
1761331,1634745524.086,8214
1761332,1634745524.088,8215
1761333,1634745524.09,8217
1761334,1634745524.092,8218
1761335,1634745524.094,8220
1761336,1634745524.096,8221
1761337,1634745524.098,8223
1761338,1634745524.1,8225
1761339,1634745524.102,8227
1761340,1634745524.104,8228
1761341,1634745524.106,8230
1761342,1634745524.108,8232
1761343,1634745524.11,8233
1761344,1634745524.112,8233
1761345,1634745524.114,8233
1761346,1634745524.116,8232
1761347,1634745524.118,8230
1761348,1634745524.12,8227
1761349,1634745524.122,8224
1761350,1634745524.124,8221
1761351,1634745524.126,8217
1761352,1634745524.128,8214
1761353,1634745524.13,8210
1761354,1634745524.132,8207
1761355,1634745524.134,8204
1761356,1634745524.136,8202
1761357,1634745524.138,8200
1761358,1634745524.14,8199
1761359,1634745524.142,8197
1761360,1634745524.144,8196
1761361,1634745524.146,8194
1761362,1634745524.148,8193
1761363,1634745524.15,8192
1761364,1634745524.152,8191
1761365,1634745524.154,8191
1761366,1634745524.156,8190
1761367,1634745524.158,8190
1761368,1634745524.16,8189
1761369,1634745524.162,8189
1761370,1634745524.164,8189
1761371,1634745524.166,8188
1761372,1634745524.168,8188
1761373,1634745524.17,8188
1761374,1634745524.172,8187
1761375,1634745524.174,8187
1761376,1634745524.176,8187
1761377,1634745524.178,8187
1761378,1634745524.18,8187
1761379,1634745524.182,8187
1761380,1634745524.184,8187
1761381,1634745524.186,8187
1761382,1634745524.188,8186
1761383,1634745524.19,8186
1761384,1634745524.192,8186
1761385,1634745524.194,8186
1761386,1634745524.196,8186
1761387,1634745524.198,8187
1761388,1634745524.2,8187
1761389,1634745524.202,8187
1761390,1634745524.204,8187
1761391,1634745524.206,8187
1761392,1634745524.208,8186
1761393,1634745524.21,8186
1761394,1634745524.212,8186
1761395,1634745524.214,8186
1761396,1634745524.216,8187
1761397,1634745524.218,8188
1761398,1634745524.22,8190
1761399,1634745524.222,8190
1761400,1634745524.224,8191
1761401,1634745524.226,8191
1761402,1634745524.228,8191
1761403,1634745524.23,8191
1761404,1634745524.232,8192
1761405,1634745524.234,8193
1761406,1634745524.236,8194
1761407,1634745524.238,8196
1761408,1634745524.24,8198
1761409,1634745524.242,8200
1761410,1634745524.244,8202
1761411,1634745524.246,8206
1761412,1634745524.248,8210
1761413,1634745524.25,8214
1761414,1634745524.252,8217
1761415,1634745524.254,8219
1761416,1634745524.256,8218
1761417,1634745524.258,8217
1761418,1634745524.26,8215
1761419,1634745524.262,8213
1761420,1634745524.264,8210
1761421,1634745524.266,8207
1761422,1634745524.268,8202
1761423,1634745524.27,8197
1761424,1634745524.272,8191
1761425,1634745524.274,8187
1761426,1634745524.276,8184
1761427,1634745524.278,8181
1761428,1634745524.28,8179
1761429,1634745524.282,8178
1761430,1634745524.284,8177
1761431,1634745524.286,8177
1761432,1634745524.288,8177
1761433,1634745524.29,8177
1761434,1634745524.292,8177
1761435,1634745524.294,8177
1761436,1634745524.296,8176
1761437,1634745524.298,8176
1761438,1634745524.3,8176
1761439,1634745524.302,8176
1761440,1634745524.304,8176
1761441,1634745524.306,8177
1761442,1634745524.308,8177
1761443,1634745524.31,8178
1761444,1634745524.312,8178
1761445,1634745524.314,8178
1761446,1634745524.316,8178
1761447,1634745524.318,8176
1761448,1634745524.32,8171
1761449,1634745524.322,8156
1761450,1634745524.324,8132
1761451,1634745524.326,8105
1761452,1634745524.328,8083
1761453,1634745524.33,8070
1761454,1634745524.332,8065
1761455,1634745524.334,8064
1761456,1634745524.336,8069
1761457,1634745524.338,8085
1761458,1634745524.34,8125
1761459,1634745524.342,8197
1761460,1634745524.344,8288
1761461,1634745524.346,8369
1761462,1634745524.348,8417
1761463,1634745524.35,8434
1761464,1634745524.352,8426
1761465,1634745524.354,8397
1761466,1634745524.356,8345
1761467,1634745524.358,8278
1761468,1634745524.36,8213
1761469,1634745524.362,8169
1761470,1634745524.364,8149
1761471,1634745524.366,8148
1761472,1634745524.368,8156
1761473,1634745524.37,8165
1761474,1634745524.372,8171
1761475,1634745524.374,8173
1761476,1634745524.376,8172
1761477,1634745524.378,8169
1761478,1634745524.38,8166
1761479,1634745524.382,8164
1761480,1634745524.384,8162
1761481,1634745524.386,8160
1761482,1634745524.388,8159
1761483,1634745524.39,8159
1761484,1634745524.392,8159
1761485,1634745524.394,8159
1761486,1634745524.396,8159
1761487,1634745524.398,8159
1761488,1634745524.4,8159
1761489,1634745524.402,8160
1761490,1634745524.404,8160
1761491,1634745524.406,8160
1761492,1634745524.408,8160
1761493,1634745524.41,8161
1761494,1634745524.412,8162
1761495,1634745524.414,8162
1761496,1634745524.416,8162
1761497,1634745524.418,8162
1761498,1634745524.42,8163
1761499,1634745524.422,8163
1761500,1634745524.424,8164
1761501,1634745524.426,8164
1761502,1634745524.428,8164
1761503,1634745524.43,8165
1761504,1634745524.432,8165
1761505,1634745524.434,8166
1761506,1634745524.436,8166
1761507,1634745524.438,8166
1761508,1634745524.44,8167
1761509,1634745524.442,8167
1761510,1634745524.444,8167
1761511,1634745524.446,8168
1761512,1634745524.448,8169
1761513,1634745524.45,8169
1761514,1634745524.452,8170
1761515,1634745524.454,8171
1761516,1634745524.456,8171
1761517,1634745524.458,8172
1761518,1634745524.46,8173
1761519,1634745524.462,8174
1761520,1634745524.464,8176
1761521,1634745524.466,8177
1761522,1634745524.468,8179
1761523,1634745524.47,8180
1761524,1634745524.472,8182
1761525,1634745524.474,8184
1761526,1634745524.476,8185
1761527,1634745524.478,8187
1761528,1634745524.48,8188
1761529,1634745524.482,8190
1761530,1634745524.484,8191
1761531,1634745524.486,8193
1761532,1634745524.488,8195
1761533,1634745524.49,8197
1761534,1634745524.492,8199
1761535,1634745524.494,8200
1761536,1634745524.496,8201
1761537,1634745524.498,8202
1761538,1634745524.5,8203
1761539,1634745524.502,8204
1761540,1634745524.504,8205
1761541,1634745524.506,8205
1761542,1634745524.508,8206
1761543,1634745524.51,8207
1761544,1634745524.512,8208
1761545,1634745524.514,8208
1761546,1634745524.516,8209
1761547,1634745524.518,8209
1761548,1634745524.52,8211
1761549,1634745524.522,8212
1761550,1634745524.524,8214
1761551,1634745524.526,8216
1761552,1634745524.528,8218
1761553,1634745524.53,8220
1761554,1634745524.532,8222
1761555,1634745524.534,8223
1761556,1634745524.536,8225
1761557,1634745524.538,8227
1761558,1634745524.54,8227
1761559,1634745524.542,8226
1761560,1634745524.544,8225
1761561,1634745524.546,8223
1761562,1634745524.548,8220
1761563,1634745524.55,8217
1761564,1634745524.552,8214
1761565,1634745524.554,8210
1761566,1634745524.556,8207
1761567,1634745524.558,8204
1761568,1634745524.56,8201
1761569,1634745524.562,8198
1761570,1634745524.564,8196
1761571,1634745524.566,8194
1761572,1634745524.568,8193
1761573,1634745524.57,8191
1761574,1634745524.572,8190
1761575,1634745524.574,8188
1761576,1634745524.576,8187
1761577,1634745524.578,8187
1761578,1634745524.58,8186
1761579,1634745524.582,8185
1761580,1634745524.584,8185
1761581,1634745524.586,8184
1761582,1634745524.588,8184
1761583,1634745524.59,8183
1761584,1634745524.592,8183
1761585,1634745524.594,8182
1761586,1634745524.596,8182
1761587,1634745524.598,8182
1761588,1634745524.6,8183
1761589,1634745524.602,8183
1761590,1634745524.604,8183
1761591,1634745524.606,8183
1761592,1634745524.608,8183
1761593,1634745524.61,8183
1761594,1634745524.612,8183
1761595,1634745524.614,8183
1761596,1634745524.616,8183
1761597,1634745524.618,8183
1761598,1634745524.62,8183
1761599,1634745524.622,8183
1761600,1634745524.624,8183
1761601,1634745524.626,8183
1761602,1634745524.628,8183
1761603,1634745524.63,8183
1761604,1634745524.632,8184
1761605,1634745524.634,8184
1761606,1634745524.636,8185
1761607,1634745524.638,8186
1761608,1634745524.64,8186
1761609,1634745524.642,8187
1761610,1634745524.644,8188
1761611,1634745524.646,8188
1761612,1634745524.648,8189
1761613,1634745524.65,8190
1761614,1634745524.652,8190
1761615,1634745524.654,8190
1761616,1634745524.656,8190
1761617,1634745524.658,8190
1761618,1634745524.66,8191
1761619,1634745524.662,8192
1761620,1634745524.664,8193
1761621,1634745524.666,8195
1761622,1634745524.668,8196
1761623,1634745524.67,8198
1761624,1634745524.672,8200
1761625,1634745524.674,8203
1761626,1634745524.676,8208
1761627,1634745524.678,8212
1761628,1634745524.68,8216
1761629,1634745524.682,8218
1761630,1634745524.684,8217
1761631,1634745524.686,8216
1761632,1634745524.688,8214
1761633,1634745524.69,8212
1761634,1634745524.692,8210
1761635,1634745524.694,8206
1761636,1634745524.696,8200
1761637,1634745524.698,8195
1761638,1634745524.7,8189
1761639,1634745524.702,8185
1761640,1634745524.704,8182
1761641,1634745524.706,8179
1761642,1634745524.708,8178
1761643,1634745524.71,8176
1761644,1634745524.712,8175
1761645,1634745524.714,8175
1761646,1634745524.716,8174
1761647,1634745524.718,8174
1761648,1634745524.72,8174
1761649,1634745524.722,8174
1761650,1634745524.724,8174
1761651,1634745524.726,8175
1761652,1634745524.728,8175
1761653,1634745524.73,8174
1761654,1634745524.732,8174
1761655,1634745524.734,8174
1761656,1634745524.736,8174
1761657,1634745524.738,8174
1761658,1634745524.74,8174
1761659,1634745524.742,8174
1761660,1634745524.744,8174
1761661,1634745524.746,8173
1761662,1634745524.748,8169
1761663,1634745524.75,8157
1761664,1634745524.752,8135
1761665,1634745524.754,8108
1761666,1634745524.756,8084
1761667,1634745524.758,8069
1761668,1634745524.76,8062
1761669,1634745524.762,8061
1761670,1634745524.764,8065
1761671,1634745524.766,8078
1761672,1634745524.768,8111
1761673,1634745524.77,8174
1761674,1634745524.772,8258
1761675,1634745524.774,8337
1761676,1634745524.776,8388
1761677,1634745524.778,8408
1761678,1634745524.78,8404
1761679,1634745524.782,8377
1761680,1634745524.784,8328
1761681,1634745524.786,8267
1761682,1634745524.788,8210
1761683,1634745524.79,8168
1761684,1634745524.792,8148
1761685,1634745524.794,8146
1761686,1634745524.796,8154
1761687,1634745524.798,8163
1761688,1634745524.8,8170
1761689,1634745524.802,8174
1761690,1634745524.804,8173
1761691,1634745524.806,8171
1761692,1634745524.808,8168
1761693,1634745524.81,8166
1761694,1634745524.812,8164
1761695,1634745524.814,8163
1761696,1634745524.816,8162
1761697,1634745524.818,8162
1761698,1634745524.82,8162
1761699,1634745524.822,8162
1761700,1634745524.824,8162
1761701,1634745524.826,8162
1761702,1634745524.828,8162
1761703,1634745524.83,8162
1761704,1634745524.832,8163
1761705,1634745524.834,8163
1761706,1634745524.836,8164
1761707,1634745524.838,8164
1761708,1634745524.84,8165
1761709,1634745524.842,8165
1761710,1634745524.844,8166
1761711,1634745524.846,8166
1761712,1634745524.848,8167
1761713,1634745524.85,8167
1761714,1634745524.852,8168
1761715,1634745524.854,8168
1761716,1634745524.856,8169
1761717,1634745524.858,8169
1761718,1634745524.86,8170
1761719,1634745524.862,8170
1761720,1634745524.864,8171
1761721,1634745524.866,8171
1761722,1634745524.868,8172
1761723,1634745524.87,8173
1761724,1634745524.872,8174
1761725,1634745524.874,8174
1761726,1634745524.876,8175
1761727,1634745524.878,8176
1761728,1634745524.88,8176
1761729,1634745524.882,8177
1761730,1634745524.884,8178
1761731,1634745524.886,8179
1761732,1634745524.888,8181
1761733,1634745524.89,8182
1761734,1634745524.892,8183
1761735,1634745524.894,8184
1761736,1634745524.896,8185
1761737,1634745524.898,8187
1761738,1634745524.9,8188
1761739,1634745524.902,8190
1761740,1634745524.904,8191
1761741,1634745524.906,8193
1761742,1634745524.908,8195
1761743,1634745524.91,8197
1761744,1634745524.912,8199
1761745,1634745524.914,8201
1761746,1634745524.916,8203
1761747,1634745524.918,8204
1761748,1634745524.92,8206
1761749,1634745524.922,8207
1761750,1634745524.924,8208
1761751,1634745524.926,8209
1761752,1634745524.928,8209
1761753,1634745524.93,8210
1761754,1634745524.932,8211
1761755,1634745524.934,8212
1761756,1634745524.936,8213
1761757,1634745524.938,8213
1761758,1634745524.94,8213
1761759,1634745524.942,8214
1761760,1634745524.944,8215
1761761,1634745524.946,8217
1761762,1634745524.948,8218
1761763,1634745524.95,8220
1761764,1634745524.952,8222
1761765,1634745524.954,8224
1761766,1634745524.956,8226
1761767,1634745524.958,8229
1761768,1634745524.96,8231
1761769,1634745524.962,8233
1761770,1634745524.964,8235
1761771,1634745524.966,8236
1761772,1634745524.968,8236
1761773,1634745524.97,8235
1761774,1634745524.972,8233
1761775,1634745524.974,8231
1761776,1634745524.976,8228
1761777,1634745524.978,8224
1761778,1634745524.98,8220
1761779,1634745524.982,8217
1761780,1634745524.984,8213
1761781,1634745524.986,8210
1761782,1634745524.988,8207
1761783,1634745524.99,8204
1761784,1634745524.992,8201
1761785,1634745524.994,8199
1761786,1634745524.996,8197
1761787,1634745524.998,8195
1761788,1634745525.0,8194
1761789,1634745525.002,8193
1761790,1634745525.004,8192
1761791,1634745525.006,8191
1761792,1634745525.008,8190
1761793,1634745525.01,8189
1761794,1634745525.012,8189
1761795,1634745525.014,8188
1761796,1634745525.016,8188
1761797,1634745525.018,8187
1761798,1634745525.02,8187
1761799,1634745525.022,8187
1761800,1634745525.024,8187
1761801,1634745525.026,8187
1761802,1634745525.028,8187
1761803,1634745525.03,8187
1761804,1634745525.032,8186
1761805,1634745525.034,8186
1761806,1634745525.036,8186
1761807,1634745525.038,8186
1761808,1634745525.04,8186
1761809,1634745525.042,8186
1761810,1634745525.044,8186
1761811,1634745525.046,8186
1761812,1634745525.048,8186
1761813,1634745525.05,8186
1761814,1634745525.052,8186
1761815,1634745525.054,8186
1761816,1634745525.056,8186
1761817,1634745525.058,8186
1761818,1634745525.06,8186
1761819,1634745525.062,8186
1761820,1634745525.064,8186
1761821,1634745525.066,8186
1761822,1634745525.068,8186
1761823,1634745525.07,8186
1761824,1634745525.072,8187
1761825,1634745525.074,8188
1761826,1634745525.076,8190
1761827,1634745525.078,8191
1761828,1634745525.08,8192
1761829,1634745525.082,8193
1761830,1634745525.084,8193
1761831,1634745525.086,8193
1761832,1634745525.088,8194
1761833,1634745525.09,8195
1761834,1634745525.092,8196
1761835,1634745525.094,8197
1761836,1634745525.096,8198
1761837,1634745525.098,8200
1761838,1634745525.1,8201
1761839,1634745525.102,8204
1761840,1634745525.104,8208
1761841,1634745525.106,8213
1761842,1634745525.108,8217
1761843,1634745525.11,8219
1761844,1634745525.112,8219
1761845,1634745525.114,8218
1761846,1634745525.116,8217
1761847,1634745525.118,8215
1761848,1634745525.12,8212
1761849,1634745525.122,8208
1761850,1634745525.124,8203
1761851,1634745525.126,8198
1761852,1634745525.128,8192
1761853,1634745525.13,8188
1761854,1634745525.132,8184
1761855,1634745525.134,8181
1761856,1634745525.136,8179
1761857,1634745525.138,8177
1761858,1634745525.14,8176
1761859,1634745525.142,8176
1761860,1634745525.144,8176
1761861,1634745525.146,8175
1761862,1634745525.148,8175
1761863,1634745525.15,8175
1761864,1634745525.152,8176
1761865,1634745525.154,8175
1761866,1634745525.156,8175
1761867,1634745525.158,8175
1761868,1634745525.16,8175
1761869,1634745525.162,8175
1761870,1634745525.164,8176
1761871,1634745525.166,8176
1761872,1634745525.168,8176
1761873,1634745525.17,8176
1761874,1634745525.172,8176
1761875,1634745525.174,8175
1761876,1634745525.176,8171
1761877,1634745525.178,8160
1761878,1634745525.18,8140
1761879,1634745525.182,8113
1761880,1634745525.184,8088
1761881,1634745525.186,8073
1761882,1634745525.188,8065
1761883,1634745525.19,8063
1761884,1634745525.192,8067
1761885,1634745525.194,8081
1761886,1634745525.196,8114
1761887,1634745525.198,8173
1761888,1634745525.2,8252
1761889,1634745525.202,8327
1761890,1634745525.204,8378
1761891,1634745525.206,8401
1761892,1634745525.208,8401
1761893,1634745525.21,8378
1761894,1634745525.212,8331
1761895,1634745525.214,8268
1761896,1634745525.216,8209
1761897,1634745525.218,8168
1761898,1634745525.22,8148
1761899,1634745525.222,8147
1761900,1634745525.224,8155
1761901,1634745525.226,8165
1761902,1634745525.228,8173
1761903,1634745525.23,8177
1761904,1634745525.232,8177
1761905,1634745525.234,8174
1761906,1634745525.236,8171
1761907,1634745525.238,8168
1761908,1634745525.24,8166
1761909,1634745525.242,8165
1761910,1634745525.244,8165
1761911,1634745525.246,8164
1761912,1634745525.248,8165
1761913,1634745525.25,8165
1761914,1634745525.252,8165
1761915,1634745525.254,8165
1761916,1634745525.256,8165
1761917,1634745525.258,8166
1761918,1634745525.26,8167
1761919,1634745525.262,8167
1761920,1634745525.264,8167
1761921,1634745525.266,8167
1761922,1634745525.268,8167
1761923,1634745525.27,8168
1761924,1634745525.272,8168
1761925,1634745525.274,8168
1761926,1634745525.276,8169
1761927,1634745525.278,8169
1761928,1634745525.28,8169
1761929,1634745525.282,8169
1761930,1634745525.284,8170
1761931,1634745525.286,8170
1761932,1634745525.288,8171
1761933,1634745525.29,8172
1761934,1634745525.292,8173
1761935,1634745525.294,8174
1761936,1634745525.296,8175
1761937,1634745525.298,8175
1761938,1634745525.3,8176
1761939,1634745525.302,8177
1761940,1634745525.304,8178
1761941,1634745525.306,8179
1761942,1634745525.308,8180
1761943,1634745525.31,8181
1761944,1634745525.312,8181
1761945,1634745525.314,8182
1761946,1634745525.316,8183
1761947,1634745525.318,8184
1761948,1634745525.32,8185
1761949,1634745525.322,8187
1761950,1634745525.324,8188
1761951,1634745525.326,8189
1761952,1634745525.328,8191
1761953,1634745525.33,8193
1761954,1634745525.332,8194
1761955,1634745525.334,8196
1761956,1634745525.336,8198
1761957,1634745525.338,8199
1761958,1634745525.34,8201
1761959,1634745525.342,8202
1761960,1634745525.344,8204
1761961,1634745525.346,8205
1761962,1634745525.348,8207
1761963,1634745525.35,8209
1761964,1634745525.352,8210
1761965,1634745525.354,8210
1761966,1634745525.356,8211
1761967,1634745525.358,8212
1761968,1634745525.36,8213
1761969,1634745525.362,8214
1761970,1634745525.364,8214
1761971,1634745525.366,8215
1761972,1634745525.368,8216
1761973,1634745525.37,8216
1761974,1634745525.372,8217
1761975,1634745525.374,8219
1761976,1634745525.376,8220
1761977,1634745525.378,8223
1761978,1634745525.38,8225
1761979,1634745525.382,8227
1761980,1634745525.384,8230
1761981,1634745525.386,8232
1761982,1634745525.388,8234
1761983,1634745525.39,8237
1761984,1634745525.392,8238
1761985,1634745525.394,8239
1761986,1634745525.396,8239
1761987,1634745525.398,8238
1761988,1634745525.4,8236
1761989,1634745525.402,8234
1761990,1634745525.404,8231
1761991,1634745525.406,8228
1761992,1634745525.408,8224
1761993,1634745525.41,8220
1761994,1634745525.412,8217
1761995,1634745525.414,8213
1761996,1634745525.416,8210
1761997,1634745525.418,8207
1761998,1634745525.42,8205
1761999,1634745525.422,8203
1762000,1634745525.424,8201
1762001,1634745525.426,8199
1762002,1634745525.428,8198
1762003,1634745525.43,8196
1762004,1634745525.432,8195
1762005,1634745525.434,8194
1762006,1634745525.436,8194
1762007,1634745525.438,8193
1762008,1634745525.44,8193
1762009,1634745525.442,8192
1762010,1634745525.444,8192
1762011,1634745525.446,8192
1762012,1634745525.448,8192
1762013,1634745525.45,8192
1762014,1634745525.452,8191
1762015,1634745525.454,8191
1762016,1634745525.456,8191
1762017,1634745525.458,8191
1762018,1634745525.46,8191
1762019,1634745525.462,8192
1762020,1634745525.464,8192
1762021,1634745525.466,8192
1762022,1634745525.468,8191
1762023,1634745525.47,8191
1762024,1634745525.472,8191
1762025,1634745525.474,8191
1762026,1634745525.476,8191
1762027,1634745525.478,8191
1762028,1634745525.48,8191
1762029,1634745525.482,8191
1762030,1634745525.484,8191
1762031,1634745525.486,8191
1762032,1634745525.488,8191
1762033,1634745525.49,8191
1762034,1634745525.492,8191
1762035,1634745525.494,8191
1762036,1634745525.496,8192
1762037,1634745525.498,8192
1762038,1634745525.5,8193
1762039,1634745525.502,8194
1762040,1634745525.504,8194
1762041,1634745525.506,8194
1762042,1634745525.508,8195
1762043,1634745525.51,8195
1762044,1634745525.512,8196
1762045,1634745525.514,8196
1762046,1634745525.516,8197
1762047,1634745525.518,8198
1762048,1634745525.52,8199
1762049,1634745525.522,8200
1762050,1634745525.524,8201
1762051,1634745525.526,8203
1762052,1634745525.528,8205
1762053,1634745525.53,8208
1762054,1634745525.532,8212
1762055,1634745525.534,8217
1762056,1634745525.536,8220
1762057,1634745525.538,8221
1762058,1634745525.54,8221
1762059,1634745525.542,8220
1762060,1634745525.544,8219
1762061,1634745525.546,8217
1762062,1634745525.548,8214
1762063,1634745525.55,8210
1762064,1634745525.552,8205
1762065,1634745525.554,8199
1762066,1634745525.556,8194
1762067,1634745525.558,8189
1762068,1634745525.56,8186
1762069,1634745525.562,8183
1762070,1634745525.564,8181
1762071,1634745525.566,8180
1762072,1634745525.568,8180
1762073,1634745525.57,8180
1762074,1634745525.572,8180
1762075,1634745525.574,8180
1762076,1634745525.576,8179
1762077,1634745525.578,8179
1762078,1634745525.58,8179
1762079,1634745525.582,8179
1762080,1634745525.584,8179
1762081,1634745525.586,8179
1762082,1634745525.588,8179
1762083,1634745525.59,8178
1762084,1634745525.592,8178
1762085,1634745525.594,8178
1762086,1634745525.596,8177
1762087,1634745525.598,8177
1762088,1634745525.6,8176
1762089,1634745525.602,8174
1762090,1634745525.604,8167
1762091,1634745525.606,8151
1762092,1634745525.608,8126
1762093,1634745525.61,8099
1762094,1634745525.612,8079
1762095,1634745525.614,8067
1762096,1634745525.616,8061
1762097,1634745525.618,8060
1762098,1634745525.62,8066
1762099,1634745525.622,8084
1762100,1634745525.624,8126
1762101,1634745525.626,8197
1762102,1634745525.628,8280
1762103,1634745525.63,8347
1762104,1634745525.632,8387
1762105,1634745525.634,8402
1762106,1634745525.636,8396
1762107,1634745525.638,8369
1762108,1634745525.64,8319
1762109,1634745525.642,8257
1762110,1634745525.644,8202
1762111,1634745525.646,8166
1762112,1634745525.648,8150
1762113,1634745525.65,8150
1762114,1634745525.652,8158
1762115,1634745525.654,8167
1762116,1634745525.656,8174
1762117,1634745525.658,8177
1762118,1634745525.66,8176
1762119,1634745525.662,8174
1762120,1634745525.664,8171
1762121,1634745525.666,8168
1762122,1634745525.668,8167
1762123,1634745525.67,8166
1762124,1634745525.672,8165
1762125,1634745525.674,8165
1762126,1634745525.676,8165
1762127,1634745525.678,8165
1762128,1634745525.68,8165
1762129,1634745525.682,8166
1762130,1634745525.684,8166
1762131,1634745525.686,8167
1762132,1634745525.688,8167
1762133,1634745525.69,8167
1762134,1634745525.692,8168
1762135,1634745525.694,8168
1762136,1634745525.696,8169
1762137,1634745525.698,8170
1762138,1634745525.7,8170
1762139,1634745525.702,8170
1762140,1634745525.704,8170
1762141,1634745525.706,8171
1762142,1634745525.708,8172
1762143,1634745525.71,8173
1762144,1634745525.712,8173
1762145,1634745525.714,8174
1762146,1634745525.716,8174
1762147,1634745525.718,8174
1762148,1634745525.72,8174
1762149,1634745525.722,8174
1762150,1634745525.724,8174
1762151,1634745525.726,8175
1762152,1634745525.728,8176
1762153,1634745525.73,8177
1762154,1634745525.732,8178
1762155,1634745525.734,8178
1762156,1634745525.736,8179
1762157,1634745525.738,8180
1762158,1634745525.74,8181
1762159,1634745525.742,8182
1762160,1634745525.744,8183
1762161,1634745525.746,8184
1762162,1634745525.748,8185
1762163,1634745525.75,8186
1762164,1634745525.752,8188
1762165,1634745525.754,8189
1762166,1634745525.756,8191
1762167,1634745525.758,8193
1762168,1634745525.76,8195
1762169,1634745525.762,8197
1762170,1634745525.764,8198
1762171,1634745525.766,8200
1762172,1634745525.768,8202
1762173,1634745525.77,8203
1762174,1634745525.772,8205
1762175,1634745525.774,8206
1762176,1634745525.776,8207
1762177,1634745525.778,8209
1762178,1634745525.78,8210
1762179,1634745525.782,8212
1762180,1634745525.784,8213
1762181,1634745525.786,8214
1762182,1634745525.788,8214
1762183,1634745525.79,8215
1762184,1634745525.792,8216
1762185,1634745525.794,8217
1762186,1634745525.796,8217
1762187,1634745525.798,8218
1762188,1634745525.8,8219
1762189,1634745525.802,8221
1762190,1634745525.804,8222
1762191,1634745525.806,8224
1762192,1634745525.808,8225
1762193,1634745525.81,8227
1762194,1634745525.812,8230
1762195,1634745525.814,8232
1762196,1634745525.816,8234
1762197,1634745525.818,8236
1762198,1634745525.82,8238
1762199,1634745525.822,8239
1762200,1634745525.824,8238
1762201,1634745525.826,8237
1762202,1634745525.828,8235
1762203,1634745525.83,8233
1762204,1634745525.832,8230
1762205,1634745525.834,8227
1762206,1634745525.836,8223
1762207,1634745525.838,8220
1762208,1634745525.84,8216
1762209,1634745525.842,8212
1762210,1634745525.844,8209
1762211,1634745525.846,8206
1762212,1634745525.848,8204
1762213,1634745525.85,8202
1762214,1634745525.852,8201
1762215,1634745525.854,8199
1762216,1634745525.856,8198
1762217,1634745525.858,8197
1762218,1634745525.86,8196
1762219,1634745525.862,8196
1762220,1634745525.864,8196
1762221,1634745525.866,8196
1762222,1634745525.868,8195
1762223,1634745525.87,8195
1762224,1634745525.872,8195
1762225,1634745525.874,8195
1762226,1634745525.876,8194
1762227,1634745525.878,8194
1762228,1634745525.88,8194
1762229,1634745525.882,8194
1762230,1634745525.884,8194
1762231,1634745525.886,8194
1762232,1634745525.888,8194
1762233,1634745525.89,8194
1762234,1634745525.892,8195
1762235,1634745525.894,8195
1762236,1634745525.896,8195
1762237,1634745525.898,8195
1762238,1634745525.9,8196
1762239,1634745525.902,8196
1762240,1634745525.904,8196
1762241,1634745525.906,8196
1762242,1634745525.908,8196
1762243,1634745525.91,8196
1762244,1634745525.912,8196
1762245,1634745525.914,8196
1762246,1634745525.916,8195
1762247,1634745525.918,8195
1762248,1634745525.92,8195
1762249,1634745525.922,8195
1762250,1634745525.924,8195
1762251,1634745525.926,8196
1762252,1634745525.928,8196
1762253,1634745525.93,8197
1762254,1634745525.932,8198
1762255,1634745525.934,8199
1762256,1634745525.936,8199
1762257,1634745525.938,8199
1762258,1634745525.94,8199
1762259,1634745525.942,8200
1762260,1634745525.944,8200
1762261,1634745525.946,8201
1762262,1634745525.948,8202
1762263,1634745525.95,8204
1762264,1634745525.952,8206
1762265,1634745525.954,8208
1762266,1634745525.956,8211
1762267,1634745525.958,8216
1762268,1634745525.96,8220
1762269,1634745525.962,8224
1762270,1634745525.964,8226
1762271,1634745525.966,8226
1762272,1634745525.968,8225
1762273,1634745525.97,8223
1762274,1634745525.972,8221
1762275,1634745525.974,8218
1762276,1634745525.976,8214
1762277,1634745525.978,8210
1762278,1634745525.98,8205
1762279,1634745525.982,8200
1762280,1634745525.984,8195
1762281,1634745525.986,8192
1762282,1634745525.988,8188
1762283,1634745525.99,8186
1762284,1634745525.992,8184
1762285,1634745525.994,8183
1762286,1634745525.996,8182
1762287,1634745525.998,8181
1762288,1634745526.0,8181
1762289,1634745526.002,8180
1762290,1634745526.004,8179
1762291,1634745526.006,8179
1762292,1634745526.008,8179
1762293,1634745526.01,8179
1762294,1634745526.012,8179
1762295,1634745526.014,8179
1762296,1634745526.016,8178
1762297,1634745526.018,8177
1762298,1634745526.02,8177
1762299,1634745526.022,8177
1762300,1634745526.024,8176
1762301,1634745526.026,8176
1762302,1634745526.028,8175
1762303,1634745526.03,8173
1762304,1634745526.032,8164
1762305,1634745526.034,8145
1762306,1634745526.036,8118
1762307,1634745526.038,8092
1762308,1634745526.04,8074
1762309,1634745526.042,8064
1762310,1634745526.044,8062
1762311,1634745526.046,8064
1762312,1634745526.048,8073
1762313,1634745526.05,8098
1762314,1634745526.052,8154
1762315,1634745526.054,8239
1762316,1634745526.056,8330
1762317,1634745526.058,8398
1762318,1634745526.06,8431
1762319,1634745526.062,8435
1762320,1634745526.064,8414
1762321,1634745526.066,8370
1762322,1634745526.068,8310
1762323,1634745526.07,8245
1762324,1634745526.072,8192
1762325,1634745526.074,8160
1762326,1634745526.076,8151
1762327,1634745526.078,8155
1762328,1634745526.08,8164
1762329,1634745526.082,8171
1762330,1634745526.084,8174
1762331,1634745526.086,8174
1762332,1634745526.088,8172
1762333,1634745526.09,8168
1762334,1634745526.092,8166
1762335,1634745526.094,8164
1762336,1634745526.096,8163
1762337,1634745526.098,8162
1762338,1634745526.1,8162
1762339,1634745526.102,8161
1762340,1634745526.104,8162
1762341,1634745526.106,8162
1762342,1634745526.108,8162
1762343,1634745526.11,8162
1762344,1634745526.112,8162
1762345,1634745526.114,8162
1762346,1634745526.116,8162
1762347,1634745526.118,8163
1762348,1634745526.12,8163
1762349,1634745526.122,8163
1762350,1634745526.124,8163
1762351,1634745526.126,8164
1762352,1634745526.128,8164
1762353,1634745526.13,8164
1762354,1634745526.132,8165
1762355,1634745526.134,8165
1762356,1634745526.136,8166
1762357,1634745526.138,8167
1762358,1634745526.14,8167
1762359,1634745526.142,8167
1762360,1634745526.144,8168
1762361,1634745526.146,8169
1762362,1634745526.148,8170
1762363,1634745526.15,8171
1762364,1634745526.152,8171
1762365,1634745526.154,8172
1762366,1634745526.156,8172
1762367,1634745526.158,8173
1762368,1634745526.16,8173
1762369,1634745526.162,8174
1762370,1634745526.164,8175
1762371,1634745526.166,8176
1762372,1634745526.168,8177
1762373,1634745526.17,8178
1762374,1634745526.172,8179
1762375,1634745526.174,8180
1762376,1634745526.176,8181
1762377,1634745526.178,8182
1762378,1634745526.18,8183
1762379,1634745526.182,8184
1762380,1634745526.184,8186
1762381,1634745526.186,8187
1762382,1634745526.188,8189
1762383,1634745526.19,8190
1762384,1634745526.192,8192
1762385,1634745526.194,8194
1762386,1634745526.196,8196
1762387,1634745526.198,8198
1762388,1634745526.2,8200
1762389,1634745526.202,8201
1762390,1634745526.204,8203
1762391,1634745526.206,8204
1762392,1634745526.208,8205
1762393,1634745526.21,8206
1762394,1634745526.212,8207
1762395,1634745526.214,8208
1762396,1634745526.216,8208
1762397,1634745526.218,8208
1762398,1634745526.22,8209
1762399,1634745526.222,8209
1762400,1634745526.224,8210
1762401,1634745526.226,8211
1762402,1634745526.228,8212
1762403,1634745526.23,8213
1762404,1634745526.232,8215
1762405,1634745526.234,8217
1762406,1634745526.236,8219
1762407,1634745526.238,8221
1762408,1634745526.24,8222
1762409,1634745526.242,8224
1762410,1634745526.244,8226
1762411,1634745526.246,8228
1762412,1634745526.248,8228
1762413,1634745526.25,8229
1762414,1634745526.252,8229
1762415,1634745526.254,8228
1762416,1634745526.256,8226
1762417,1634745526.258,8224
1762418,1634745526.26,8221
1762419,1634745526.262,8217
1762420,1634745526.264,8214
1762421,1634745526.266,8210
1762422,1634745526.268,8207
1762423,1634745526.27,8204
1762424,1634745526.272,8201
1762425,1634745526.274,8199
1762426,1634745526.276,8197
1762427,1634745526.278,8196
1762428,1634745526.28,8194
1762429,1634745526.282,8193
1762430,1634745526.284,8192
1762431,1634745526.286,8191
1762432,1634745526.288,8189
1762433,1634745526.29,8188
1762434,1634745526.292,8187
1762435,1634745526.294,8187
1762436,1634745526.296,8186
1762437,1634745526.298,8186
1762438,1634745526.3,8185
1762439,1634745526.302,8185
1762440,1634745526.304,8184
1762441,1634745526.306,8184
1762442,1634745526.308,8184
1762443,1634745526.31,8184
1762444,1634745526.312,8185
1762445,1634745526.314,8184
1762446,1634745526.316,8184
1762447,1634745526.318,8184
1762448,1634745526.32,8184
1762449,1634745526.322,8184
1762450,1634745526.324,8184
1762451,1634745526.326,8184
1762452,1634745526.328,8183
1762453,1634745526.33,8183
1762454,1634745526.332,8183
1762455,1634745526.334,8183
1762456,1634745526.336,8183
1762457,1634745526.338,8183
1762458,1634745526.34,8183
1762459,1634745526.342,8183
1762460,1634745526.344,8184
1762461,1634745526.346,8184
1762462,1634745526.348,8184
1762463,1634745526.35,8184
1762464,1634745526.352,8184
1762465,1634745526.354,8184
1762466,1634745526.356,8185
1762467,1634745526.358,8186
1762468,1634745526.36,8187
1762469,1634745526.362,8188
1762470,1634745526.364,8189
1762471,1634745526.366,8189
1762472,1634745526.368,8190
1762473,1634745526.37,8191
1762474,1634745526.372,8192
1762475,1634745526.374,8194
1762476,1634745526.376,8195
1762477,1634745526.378,8197
1762478,1634745526.38,8199
1762479,1634745526.382,8201
1762480,1634745526.384,8204
1762481,1634745526.386,8207
1762482,1634745526.388,8211
1762483,1634745526.39,8215
1762484,1634745526.392,8217
1762485,1634745526.394,8216
1762486,1634745526.396,8215
1762487,1634745526.398,8213
1762488,1634745526.4,8211
1762489,1634745526.402,8209
1762490,1634745526.404,8205
1762491,1634745526.406,8200
1762492,1634745526.408,8195
1762493,1634745526.41,8189
1762494,1634745526.412,8184
1762495,1634745526.414,8180
1762496,1634745526.416,8177
1762497,1634745526.418,8174
1762498,1634745526.42,8173
1762499,1634745526.422,8172
1762500,1634745526.424,8171
1762501,1634745526.426,8171
1762502,1634745526.428,8171
1762503,1634745526.43,8172
1762504,1634745526.432,8172
1762505,1634745526.434,8172
1762506,1634745526.436,8173
1762507,1634745526.438,8173
1762508,1634745526.44,8173
1762509,1634745526.442,8173
1762510,1634745526.444,8173
1762511,1634745526.446,8174
1762512,1634745526.448,8174
1762513,1634745526.45,8174
1762514,1634745526.452,8175
1762515,1634745526.454,8175
1762516,1634745526.456,8174
1762517,1634745526.458,8172
1762518,1634745526.46,8164
1762519,1634745526.462,8147
1762520,1634745526.464,8121
1762521,1634745526.466,8095
1762522,1634745526.468,8077
1762523,1634745526.47,8066
1762524,1634745526.472,8062
1762525,1634745526.474,8064
1762526,1634745526.476,8074
1762527,1634745526.478,8102
1762528,1634745526.48,8157
1762529,1634745526.482,8234
1762530,1634745526.484,8314
1762531,1634745526.486,8374
1762532,1634745526.488,8405
1762533,1634745526.49,8411
1762534,1634745526.492,8394
1762535,1634745526.494,8354
1762536,1634745526.496,8294
1762537,1634745526.498,8229
1762538,1634745526.5,8179
1762539,1634745526.502,8152
1762540,1634745526.504,8146
1762541,1634745526.506,8152
1762542,1634745526.508,8161
1762543,1634745526.51,8169
1762544,1634745526.512,8174
1762545,1634745526.514,8174
1762546,1634745526.516,8173
1762547,1634745526.518,8170
1762548,1634745526.52,8167
1762549,1634745526.522,8165
1762550,1634745526.524,8164
1762551,1634745526.526,8164
1762552,1634745526.528,8164
1762553,1634745526.53,8163
1762554,1634745526.532,8163
1762555,1634745526.534,8164
1762556,1634745526.536,8164
1762557,1634745526.538,8165
1762558,1634745526.54,8165
1762559,1634745526.542,8165
1762560,1634745526.544,8166
1762561,1634745526.546,8166
1762562,1634745526.548,8167
1762563,1634745526.55,8167
1762564,1634745526.552,8168
1762565,1634745526.554,8168
1762566,1634745526.556,8169
1762567,1634745526.558,8169
1762568,1634745526.56,8170
1762569,1634745526.562,8171
1762570,1634745526.564,8172
1762571,1634745526.566,8172
1762572,1634745526.568,8172
1762573,1634745526.57,8172
1762574,1634745526.572,8173
1762575,1634745526.574,8173
1762576,1634745526.576,8174
1762577,1634745526.578,8175
1762578,1634745526.58,8176
1762579,1634745526.582,8176
1762580,1634745526.584,8177
1762581,1634745526.586,8178
1762582,1634745526.588,8179
1762583,1634745526.59,8179
1762584,1634745526.592,8180
1762585,1634745526.594,8181
1762586,1634745526.596,8182
1762587,1634745526.598,8183
1762588,1634745526.6,8185
1762589,1634745526.602,8186
1762590,1634745526.604,8187
1762591,1634745526.606,8189
1762592,1634745526.608,8190
1762593,1634745526.61,8192
1762594,1634745526.612,8193
1762595,1634745526.614,8195
1762596,1634745526.616,8196
1762597,1634745526.618,8198
1762598,1634745526.62,8199
1762599,1634745526.622,8201
1762600,1634745526.624,8202
1762601,1634745526.626,8204
1762602,1634745526.628,8206
1762603,1634745526.63,8207
1762604,1634745526.632,8208
1762605,1634745526.634,8209
1762606,1634745526.636,8210
1762607,1634745526.638,8211
1762608,1634745526.64,8212
1762609,1634745526.642,8213
1762610,1634745526.644,8214
1762611,1634745526.646,8215
1762612,1634745526.648,8215
1762613,1634745526.65,8216
1762614,1634745526.652,8217
1762615,1634745526.654,8218
1762616,1634745526.656,8219
1762617,1634745526.658,8220
1762618,1634745526.66,8221
1762619,1634745526.662,8223
1762620,1634745526.664,8225
1762621,1634745526.666,8227
1762622,1634745526.668,8230
1762623,1634745526.67,8232
1762624,1634745526.672,8234
1762625,1634745526.674,8236
1762626,1634745526.676,8238
1762627,1634745526.678,8238
1762628,1634745526.68,8238
1762629,1634745526.682,8237
1762630,1634745526.684,8235
1762631,1634745526.686,8232
1762632,1634745526.688,8229
1762633,1634745526.69,8226
1762634,1634745526.692,8222
1762635,1634745526.694,8218
1762636,1634745526.696,8214
1762637,1634745526.698,8211
1762638,1634745526.7,8208
1762639,1634745526.702,8206
1762640,1634745526.704,8204
1762641,1634745526.706,8202
1762642,1634745526.708,8200
1762643,1634745526.71,8199
1762644,1634745526.712,8197
1762645,1634745526.714,8196
1762646,1634745526.716,8195
1762647,1634745526.718,8195
1762648,1634745526.72,8194
1762649,1634745526.722,8193
1762650,1634745526.724,8192
1762651,1634745526.726,8191
1762652,1634745526.728,8191
1762653,1634745526.73,8190
1762654,1634745526.732,8190
1762655,1634745526.734,8190
1762656,1634745526.736,8189
1762657,1634745526.738,8189
1762658,1634745526.74,8189
1762659,1634745526.742,8189
1762660,1634745526.744,8188
1762661,1634745526.746,8188
1762662,1634745526.748,8188
1762663,1634745526.75,8188
1762664,1634745526.752,8188
1762665,1634745526.754,8188
1762666,1634745526.756,8188
1762667,1634745526.758,8188
1762668,1634745526.76,8188
1762669,1634745526.762,8188
1762670,1634745526.764,8188
1762671,1634745526.766,8188
1762672,1634745526.768,8188
1762673,1634745526.77,8188
1762674,1634745526.772,8187
1762675,1634745526.774,8187
1762676,1634745526.776,8186
1762677,1634745526.778,8187
1762678,1634745526.78,8187
1762679,1634745526.782,8187
1762680,1634745526.784,8188
1762681,1634745526.786,8189
1762682,1634745526.788,8190
1762683,1634745526.79,8191
1762684,1634745526.792,8192
1762685,1634745526.794,8192
1762686,1634745526.796,8192
1762687,1634745526.798,8193
1762688,1634745526.8,8194
1762689,1634745526.802,8194
1762690,1634745526.804,8195
1762691,1634745526.806,8197
1762692,1634745526.808,8198
1762693,1634745526.81,8200
1762694,1634745526.812,8203
1762695,1634745526.814,8207
1762696,1634745526.816,8211
1762697,1634745526.818,8216
1762698,1634745526.82,8218
1762699,1634745526.822,8219
1762700,1634745526.824,8218
1762701,1634745526.826,8217
1762702,1634745526.828,8216
1762703,1634745526.83,8214
1762704,1634745526.832,8210
1762705,1634745526.834,8206
1762706,1634745526.836,8201
1762707,1634745526.838,8196
1762708,1634745526.84,8191
1762709,1634745526.842,8187
1762710,1634745526.844,8184
1762711,1634745526.846,8182
1762712,1634745526.848,8180
1762713,1634745526.85,8179
1762714,1634745526.852,8179
1762715,1634745526.854,8179
1762716,1634745526.856,8179
1762717,1634745526.858,8179
1762718,1634745526.86,8179
1762719,1634745526.862,8180
1762720,1634745526.864,8180
1762721,1634745526.866,8180
1762722,1634745526.868,8180
1762723,1634745526.87,8180
1762724,1634745526.872,8181
1762725,1634745526.874,8181
1762726,1634745526.876,8181
1762727,1634745526.878,8181
1762728,1634745526.88,8180
1762729,1634745526.882,8180
1762730,1634745526.884,8179
1762731,1634745526.886,8176
1762732,1634745526.888,8166
1762733,1634745526.89,8146
1762734,1634745526.892,8120
1762735,1634745526.894,8095
1762736,1634745526.896,8078
1762737,1634745526.898,8069
1762738,1634745526.9,8066
1762739,1634745526.902,8067
1762740,1634745526.904,8075
1762741,1634745526.906,8101
1762742,1634745526.908,8155
1762743,1634745526.91,8233
1762744,1634745526.912,8312
1762745,1634745526.914,8367
1762746,1634745526.916,8396
1762747,1634745526.918,8404
1762748,1634745526.92,8393
1762749,1634745526.922,8359
1762750,1634745526.924,8304
1762751,1634745526.926,8243
1762752,1634745526.928,8194
1762753,1634745526.93,8165
1762754,1634745526.932,8157
1762755,1634745526.934,8162
1762756,1634745526.936,8171
1762757,1634745526.938,8178
1762758,1634745526.94,8182
1762759,1634745526.942,8181
1762760,1634745526.944,8179
1762761,1634745526.946,8176
1762762,1634745526.948,8173
1762763,1634745526.95,8171
1762764,1634745526.952,8169
1762765,1634745526.954,8168
1762766,1634745526.956,8168
1762767,1634745526.958,8167
1762768,1634745526.96,8167
1762769,1634745526.962,8167
1762770,1634745526.964,8167
1762771,1634745526.966,8167
1762772,1634745526.968,8168
1762773,1634745526.97,8168
1762774,1634745526.972,8168
1762775,1634745526.974,8168
1762776,1634745526.976,8169
1762777,1634745526.978,8169
1762778,1634745526.98,8170
1762779,1634745526.982,8170
1762780,1634745526.984,8171
1762781,1634745526.986,8171
1762782,1634745526.988,8171
1762783,1634745526.99,8171
1762784,1634745526.992,8172
1762785,1634745526.994,8172
1762786,1634745526.996,8173
1762787,1634745526.998,8173
1762788,1634745527.0,8174
1762789,1634745527.002,8174
1762790,1634745527.004,8175
1762791,1634745527.006,8175
1762792,1634745527.008,8176
1762793,1634745527.01,8176
1762794,1634745527.012,8177
1762795,1634745527.014,8178
1762796,1634745527.016,8178
1762797,1634745527.018,8179
1762798,1634745527.02,8180
1762799,1634745527.022,8181
1762800,1634745527.024,8182
1762801,1634745527.026,8183
1762802,1634745527.028,8184
1762803,1634745527.03,8185
1762804,1634745527.032,8186
1762805,1634745527.034,8188
1762806,1634745527.036,8189
1762807,1634745527.038,8190
1762808,1634745527.04,8192
1762809,1634745527.042,8194
1762810,1634745527.044,8195
1762811,1634745527.046,8197
1762812,1634745527.048,8198
1762813,1634745527.05,8200
1762814,1634745527.052,8202
1762815,1634745527.054,8203
1762816,1634745527.056,8205
1762817,1634745527.058,8207
1762818,1634745527.06,8209
1762819,1634745527.062,8210
1762820,1634745527.064,8211
1762821,1634745527.066,8212
1762822,1634745527.068,8213
1762823,1634745527.07,8213
1762824,1634745527.072,8214
1762825,1634745527.074,8215
1762826,1634745527.076,8216
1762827,1634745527.078,8217
1762828,1634745527.08,8217
1762829,1634745527.082,8218
1762830,1634745527.084,8219
1762831,1634745527.086,8220
1762832,1634745527.088,8221
1762833,1634745527.09,8223
1762834,1634745527.092,8224
1762835,1634745527.094,8226
1762836,1634745527.096,8228
1762837,1634745527.098,8231
1762838,1634745527.1,8233
1762839,1634745527.102,8234
1762840,1634745527.104,8235
1762841,1634745527.106,8236
1762842,1634745527.108,8235
1762843,1634745527.11,8234
1762844,1634745527.112,8232
1762845,1634745527.114,8229
1762846,1634745527.116,8226
1762847,1634745527.118,8222
1762848,1634745527.12,8218
1762849,1634745527.122,8214
1762850,1634745527.124,8211
1762851,1634745527.126,8208
1762852,1634745527.128,8205
1762853,1634745527.13,8202
1762854,1634745527.132,8200
1762855,1634745527.134,8198
1762856,1634745527.136,8196
1762857,1634745527.138,8195
1762858,1634745527.14,8193
1762859,1634745527.142,8192
1762860,1634745527.144,8191
1762861,1634745527.146,8190
1762862,1634745527.148,8190
1762863,1634745527.15,8189
1762864,1634745527.152,8188
1762865,1634745527.154,8188
1762866,1634745527.156,8188
1762867,1634745527.158,8188
1762868,1634745527.16,8188
1762869,1634745527.162,8188
1762870,1634745527.164,8187
1762871,1634745527.166,8187
1762872,1634745527.168,8187
1762873,1634745527.17,8187
1762874,1634745527.172,8188
1762875,1634745527.174,8188
1762876,1634745527.176,8187
1762877,1634745527.178,8187
1762878,1634745527.18,8187
1762879,1634745527.182,8187
1762880,1634745527.184,8186
1762881,1634745527.186,8186
1762882,1634745527.188,8186
1762883,1634745527.19,8186
1762884,1634745527.192,8186
1762885,1634745527.194,8186
1762886,1634745527.196,8186
1762887,1634745527.198,8186
1762888,1634745527.2,8186
1762889,1634745527.202,8186
1762890,1634745527.204,8186
1762891,1634745527.206,8187
1762892,1634745527.208,8187
1762893,1634745527.21,8188
1762894,1634745527.212,8189
1762895,1634745527.214,8190
1762896,1634745527.216,8190
1762897,1634745527.218,8191
1762898,1634745527.22,8191
1762899,1634745527.222,8192
1762900,1634745527.224,8192
1762901,1634745527.226,8193
1762902,1634745527.228,8194
1762903,1634745527.23,8195
1762904,1634745527.232,8196
1762905,1634745527.234,8198
1762906,1634745527.236,8200
1762907,1634745527.238,8202
1762908,1634745527.24,8205
1762909,1634745527.242,8209
1762910,1634745527.244,8213
1762911,1634745527.246,8217
1762912,1634745527.248,8219
1762913,1634745527.25,8218
1762914,1634745527.252,8218
1762915,1634745527.254,8216
1762916,1634745527.256,8214
1762917,1634745527.258,8211
1762918,1634745527.26,8207
1762919,1634745527.262,8202
1762920,1634745527.264,8197
1762921,1634745527.266,8192
1762922,1634745527.268,8188
1762923,1634745527.27,8185
1762924,1634745527.272,8182
1762925,1634745527.274,8179
1762926,1634745527.276,8178
1762927,1634745527.278,8176
1762928,1634745527.28,8176
1762929,1634745527.282,8176
1762930,1634745527.284,8176
1762931,1634745527.286,8176
1762932,1634745527.288,8177
1762933,1634745527.29,8176
1762934,1634745527.292,8176
1762935,1634745527.294,8176
1762936,1634745527.296,8176
1762937,1634745527.298,8175
1762938,1634745527.3,8175
1762939,1634745527.302,8176
1762940,1634745527.304,8175
1762941,1634745527.306,8175
1762942,1634745527.308,8175
1762943,1634745527.31,8175
1762944,1634745527.312,8174
1762945,1634745527.314,8170
1762946,1634745527.316,8158
1762947,1634745527.318,8136
1762948,1634745527.32,8109
1762949,1634745527.322,8085
1762950,1634745527.324,8069
1762951,1634745527.326,8061
1762952,1634745527.328,8059
1762953,1634745527.33,8061
1762954,1634745527.332,8073
1762955,1634745527.334,8104
1762956,1634745527.336,8167
1762957,1634745527.338,8252
1762958,1634745527.34,8331
1762959,1634745527.342,8384
1762960,1634745527.344,8409
1762961,1634745527.346,8409
1762962,1634745527.348,8385
1762963,1634745527.35,8338
1762964,1634745527.352,8277
1762965,1634745527.354,8219
1762966,1634745527.356,8177
1762967,1634745527.358,8155
1762968,1634745527.36,8151
1762969,1634745527.362,8158
1762970,1634745527.364,8167
1762971,1634745527.366,8173
1762972,1634745527.368,8176
1762973,1634745527.37,8176
1762974,1634745527.372,8173
1762975,1634745527.374,8171
1762976,1634745527.376,8168
1762977,1634745527.378,8166
1762978,1634745527.38,8165
1762979,1634745527.382,8164
1762980,1634745527.384,8163
1762981,1634745527.386,8163
1762982,1634745527.388,8163
1762983,1634745527.39,8164
1762984,1634745527.392,8164
1762985,1634745527.394,8164
1762986,1634745527.396,8164
1762987,1634745527.398,8164
1762988,1634745527.4,8164
1762989,1634745527.402,8164
1762990,1634745527.404,8165
1762991,1634745527.406,8165
1762992,1634745527.408,8165
1762993,1634745527.41,8166
1762994,1634745527.412,8166
1762995,1634745527.414,8167
1762996,1634745527.416,8167
1762997,1634745527.418,8167
1762998,1634745527.42,8168
1762999,1634745527.422,8169
1763000,1634745527.424,8169
1763001,1634745527.426,8170
1763002,1634745527.428,8170
1763003,1634745527.43,8171
1763004,1634745527.432,8171
1763005,1634745527.434,8172
1763006,1634745527.436,8173
1763007,1634745527.438,8174
1763008,1634745527.44,8175
1763009,1634745527.442,8176
1763010,1634745527.444,8177
1763011,1634745527.446,8177
1763012,1634745527.448,8177
1763013,1634745527.45,8178
1763014,1634745527.452,8179
1763015,1634745527.454,8180
1763016,1634745527.456,8182
1763017,1634745527.458,8183
1763018,1634745527.46,8184
1763019,1634745527.462,8186
1763020,1634745527.464,8187
1763021,1634745527.466,8188
1763022,1634745527.468,8190
1763023,1634745527.47,8192
1763024,1634745527.472,8193
1763025,1634745527.474,8195
1763026,1634745527.476,8197
1763027,1634745527.478,8199
1763028,1634745527.48,8201
1763029,1634745527.482,8202
1763030,1634745527.484,8204
1763031,1634745527.486,8205
1763032,1634745527.488,8206
1763033,1634745527.49,8207
1763034,1634745527.492,8209
1763035,1634745527.494,8210
1763036,1634745527.496,8211
1763037,1634745527.498,8211
1763038,1634745527.5,8212
1763039,1634745527.502,8213
1763040,1634745527.504,8214
1763041,1634745527.506,8214
1763042,1634745527.508,8215
1763043,1634745527.51,8216
1763044,1634745527.512,8217
1763045,1634745527.514,8218
1763046,1634745527.516,8220
1763047,1634745527.518,8221
1763048,1634745527.52,8223
1763049,1634745527.522,8226
1763050,1634745527.524,8229
1763051,1634745527.526,8231
1763052,1634745527.528,8232
1763053,1634745527.53,8233
1763054,1634745527.532,8234
1763055,1634745527.534,8234
1763056,1634745527.536,8234
1763057,1634745527.538,8233
1763058,1634745527.54,8230
1763059,1634745527.542,8227
1763060,1634745527.544,8224
1763061,1634745527.546,8220
1763062,1634745527.548,8217
1763063,1634745527.55,8213
1763064,1634745527.552,8210
1763065,1634745527.554,8206
1763066,1634745527.556,8203
1763067,1634745527.558,8200
1763068,1634745527.56,8197
1763069,1634745527.562,8196
1763070,1634745527.564,8194
1763071,1634745527.566,8193
1763072,1634745527.568,8192
1763073,1634745527.57,8192
1763074,1634745527.572,8191
1763075,1634745527.574,8190
1763076,1634745527.576,8189
1763077,1634745527.578,8188
1763078,1634745527.58,8188
1763079,1634745527.582,8188
1763080,1634745527.584,8187
1763081,1634745527.586,8187
1763082,1634745527.588,8187
1763083,1634745527.59,8186
1763084,1634745527.592,8186
1763085,1634745527.594,8186
1763086,1634745527.596,8186
1763087,1634745527.598,8186
1763088,1634745527.6,8186
1763089,1634745527.602,8186
1763090,1634745527.604,8186
1763091,1634745527.606,8186
1763092,1634745527.608,8186
1763093,1634745527.61,8186
1763094,1634745527.612,8186
1763095,1634745527.614,8186
1763096,1634745527.616,8186
1763097,1634745527.618,8186
1763098,1634745527.62,8186
1763099,1634745527.622,8186
1763100,1634745527.624,8186
1763101,1634745527.626,8186
1763102,1634745527.628,8186
1763103,1634745527.63,8186
1763104,1634745527.632,8186
1763105,1634745527.634,8187
1763106,1634745527.636,8188
1763107,1634745527.638,8188
1763108,1634745527.64,8189
1763109,1634745527.642,8190
1763110,1634745527.644,8190
1763111,1634745527.646,8190
1763112,1634745527.648,8190
1763113,1634745527.65,8190
1763114,1634745527.652,8191
1763115,1634745527.654,8192
1763116,1634745527.656,8193
1763117,1634745527.658,8194
1763118,1634745527.66,8195
1763119,1634745527.662,8196
1763120,1634745527.664,8198
1763121,1634745527.666,8200
1763122,1634745527.668,8204
1763123,1634745527.67,8209
1763124,1634745527.672,8213
1763125,1634745527.674,8215
1763126,1634745527.676,8216
1763127,1634745527.678,8216
1763128,1634745527.68,8215
1763129,1634745527.682,8214
1763130,1634745527.684,8212
1763131,1634745527.686,8209
1763132,1634745527.688,8204
1763133,1634745527.69,8199
1763134,1634745527.692,8193
1763135,1634745527.694,8188
1763136,1634745527.696,8184
1763137,1634745527.698,8181
1763138,1634745527.7,8178
1763139,1634745527.702,8176
1763140,1634745527.704,8175
1763141,1634745527.706,8174
1763142,1634745527.708,8174
1763143,1634745527.71,8174
1763144,1634745527.712,8174
1763145,1634745527.714,8174
1763146,1634745527.716,8174
1763147,1634745527.718,8174
1763148,1634745527.72,8174
1763149,1634745527.722,8174
1763150,1634745527.724,8174
1763151,1634745527.726,8174
1763152,1634745527.728,8174
1763153,1634745527.73,8174
1763154,1634745527.732,8174
1763155,1634745527.734,8174
1763156,1634745527.736,8174
1763157,1634745527.738,8173
1763158,1634745527.74,8172
1763159,1634745527.742,8165
1763160,1634745527.744,8150
1763161,1634745527.746,8127
1763162,1634745527.748,8100
1763163,1634745527.75,8078
1763164,1634745527.752,8065
1763165,1634745527.754,8058
1763166,1634745527.756,8057
1763167,1634745527.758,8062
1763168,1634745527.76,8082
1763169,1634745527.762,8128
1763170,1634745527.764,8205
1763171,1634745527.766,8290
1763172,1634745527.768,8357
1763173,1634745527.77,8397
1763174,1634745527.772,8412
1763175,1634745527.774,8405
1763176,1634745527.776,8375
1763177,1634745527.778,8322
1763178,1634745527.78,8257
1763179,1634745527.782,8200
1763180,1634745527.784,8164
1763181,1634745527.786,8150
1763182,1634745527.788,8152
1763183,1634745527.79,8161
1763184,1634745527.792,8169
1763185,1634745527.794,8175
1763186,1634745527.796,8176
1763187,1634745527.798,8174
1763188,1634745527.8,8171
1763189,1634745527.802,8168
1763190,1634745527.804,8166
1763191,1634745527.806,8164
1763192,1634745527.808,8163
1763193,1634745527.81,8162
1763194,1634745527.812,8162
1763195,1634745527.814,8162
1763196,1634745527.816,8162
1763197,1634745527.818,8162
1763198,1634745527.82,8162
1763199,1634745527.822,8162
1763200,1634745527.824,8163
1763201,1634745527.826,8163
1763202,1634745527.828,8163
1763203,1634745527.83,8163
1763204,1634745527.832,8163
1763205,1634745527.834,8164
1763206,1634745527.836,8164
1763207,1634745527.838,8165
1763208,1634745527.84,8165
1763209,1634745527.842,8166
1763210,1634745527.844,8167
1763211,1634745527.846,8167
1763212,1634745527.848,8168
1763213,1634745527.85,8168
1763214,1634745527.852,8168
1763215,1634745527.854,8169
1763216,1634745527.856,8169
1763217,1634745527.858,8170
1763218,1634745527.86,8171
1763219,1634745527.862,8172
1763220,1634745527.864,8172
1763221,1634745527.866,8173
1763222,1634745527.868,8174
1763223,1634745527.87,8175
1763224,1634745527.872,8175
1763225,1634745527.874,8176
1763226,1634745527.876,8177
1763227,1634745527.878,8178
1763228,1634745527.88,8179
1763229,1634745527.882,8180
1763230,1634745527.884,8182
1763231,1634745527.886,8183
1763232,1634745527.888,8184
1763233,1634745527.89,8186
1763234,1634745527.892,8188
1763235,1634745527.894,8189
1763236,1634745527.896,8191
1763237,1634745527.898,8192
1763238,1634745527.9,8194
1763239,1634745527.902,8195
1763240,1634745527.904,8197
1763241,1634745527.906,8199
1763242,1634745527.908,8201
1763243,1634745527.91,8202
1763244,1634745527.912,8204
1763245,1634745527.914,8205
1763246,1634745527.916,8207
1763247,1634745527.918,8208
1763248,1634745527.92,8209
1763249,1634745527.922,8209
1763250,1634745527.924,8209
1763251,1634745527.926,8210
1763252,1634745527.928,8211
1763253,1634745527.93,8211
1763254,1634745527.932,8212
1763255,1634745527.934,8213
1763256,1634745527.936,8214
1763257,1634745527.938,8215
1763258,1634745527.94,8216
1763259,1634745527.942,8217
1763260,1634745527.944,8219
1763261,1634745527.946,8221
1763262,1634745527.948,8223
1763263,1634745527.95,8225
1763264,1634745527.952,8227
1763265,1634745527.954,8229
1763266,1634745527.956,8231
1763267,1634745527.958,8232
1763268,1634745527.96,8232
1763269,1634745527.962,8232
1763270,1634745527.964,8232
1763271,1634745527.966,8230
1763272,1634745527.968,8228
1763273,1634745527.97,8225
1763274,1634745527.972,8222
1763275,1634745527.974,8218
1763276,1634745527.976,8215
1763277,1634745527.978,8211
1763278,1634745527.98,8208
1763279,1634745527.982,8205
1763280,1634745527.984,8203
1763281,1634745527.986,8200
1763282,1634745527.988,8198
1763283,1634745527.99,8196
1763284,1634745527.992,8194
1763285,1634745527.994,8193
1763286,1634745527.996,8192
1763287,1634745527.998,8191
1763288,1634745528.0,8189
1763289,1634745528.002,8188
1763290,1634745528.004,8187
1763291,1634745528.006,8187
1763292,1634745528.008,8187
1763293,1634745528.01,8187
1763294,1634745528.012,8186
1763295,1634745528.014,8186
1763296,1634745528.016,8185
1763297,1634745528.018,8185
1763298,1634745528.02,8185
1763299,1634745528.022,8184
1763300,1634745528.024,8184
1763301,1634745528.026,8184
1763302,1634745528.028,8185
1763303,1634745528.03,8185
1763304,1634745528.032,8185
1763305,1634745528.034,8185
1763306,1634745528.036,8185
1763307,1634745528.038,8185
1763308,1634745528.04,8185
1763309,1634745528.042,8185
1763310,1634745528.044,8185
1763311,1634745528.046,8185
1763312,1634745528.048,8185
1763313,1634745528.05,8186
1763314,1634745528.052,8186
1763315,1634745528.054,8186
1763316,1634745528.056,8185
1763317,1634745528.058,8185
1763318,1634745528.06,8185
1763319,1634745528.062,8186
1763320,1634745528.064,8186
1763321,1634745528.066,8187
1763322,1634745528.068,8188
1763323,1634745528.07,8189
1763324,1634745528.072,8189
1763325,1634745528.074,8190
1763326,1634745528.076,8190
1763327,1634745528.078,8191
1763328,1634745528.08,8192
1763329,1634745528.082,8193
1763330,1634745528.084,8195
1763331,1634745528.086,8198
1763332,1634745528.088,8201
1763333,1634745528.09,8204
1763334,1634745528.092,8207
1763335,1634745528.094,8209
1763336,1634745528.096,8213
1763337,1634745528.098,8217
1763338,1634745528.1,8220
1763339,1634745528.102,8222
1763340,1634745528.104,8223
1763341,1634745528.106,8223
1763342,1634745528.108,8221
1763343,1634745528.11,8219
1763344,1634745528.112,8216
1763345,1634745528.114,8212
1763346,1634745528.116,8207
1763347,1634745528.118,8203
1763348,1634745528.12,8198
1763349,1634745528.122,8193
1763350,1634745528.124,8189
1763351,1634745528.126,8186
1763352,1634745528.128,8184
1763353,1634745528.13,8182
1763354,1634745528.132,8181
1763355,1634745528.134,8180
1763356,1634745528.136,8179
1763357,1634745528.138,8179
1763358,1634745528.14,8179
1763359,1634745528.142,8179
1763360,1634745528.144,8179
1763361,1634745528.146,8179
1763362,1634745528.148,8179
1763363,1634745528.15,8179
1763364,1634745528.152,8178
1763365,1634745528.154,8178
1763366,1634745528.156,8179
1763367,1634745528.158,8179
1763368,1634745528.16,8179
1763369,1634745528.162,8179
1763370,1634745528.164,8179
1763371,1634745528.166,8177
1763372,1634745528.168,8174
1763373,1634745528.17,8163
1763374,1634745528.172,8142
1763375,1634745528.174,8114
1763376,1634745528.176,8088
1763377,1634745528.178,8072
1763378,1634745528.18,8063
1763379,1634745528.182,8061
1763380,1634745528.184,8064
1763381,1634745528.186,8075
1763382,1634745528.188,8105
1763383,1634745528.19,8166
1763384,1634745528.192,8253
1763385,1634745528.194,8340
1763386,1634745528.196,8402
1763387,1634745528.198,8430
1763388,1634745528.2,8432
1763389,1634745528.202,8412
1763390,1634745528.204,8369
1763391,1634745528.206,8307
1763392,1634745528.208,8240
1763393,1634745528.21,8187
1763394,1634745528.212,8158
1763395,1634745528.214,8150
1763396,1634745528.216,8156
1763397,1634745528.218,8165
1763398,1634745528.22,8171
1763399,1634745528.222,8174
1763400,1634745528.224,8174
1763401,1634745528.226,8172
1763402,1634745528.228,8169
1763403,1634745528.23,8167
1763404,1634745528.232,8165
1763405,1634745528.234,8163
1763406,1634745528.236,8162
1763407,1634745528.238,8162
1763408,1634745528.24,8161
1763409,1634745528.242,8161
1763410,1634745528.244,8161
1763411,1634745528.246,8161
1763412,1634745528.248,8161
1763413,1634745528.25,8162
1763414,1634745528.252,8162
1763415,1634745528.254,8162
1763416,1634745528.256,8162
1763417,1634745528.258,8162
1763418,1634745528.26,8163
1763419,1634745528.262,8163
1763420,1634745528.264,8163
1763421,1634745528.266,8163
1763422,1634745528.268,8164
1763423,1634745528.27,8164
1763424,1634745528.272,8165
1763425,1634745528.274,8166
1763426,1634745528.276,8166
1763427,1634745528.278,8166
1763428,1634745528.28,8167
1763429,1634745528.282,8167
1763430,1634745528.284,8168
1763431,1634745528.286,8169
1763432,1634745528.288,8170
1763433,1634745528.29,8170
1763434,1634745528.292,8170
1763435,1634745528.294,8171
1763436,1634745528.296,8172
1763437,1634745528.298,8174
1763438,1634745528.3,8174
1763439,1634745528.302,8175
1763440,1634745528.304,8176
1763441,1634745528.306,8177
1763442,1634745528.308,8178
1763443,1634745528.31,8179
1763444,1634745528.312,8180
1763445,1634745528.314,8181
1763446,1634745528.316,8183
1763447,1634745528.318,8184
1763448,1634745528.32,8186
1763449,1634745528.322,8188
1763450,1634745528.324,8190
1763451,1634745528.326,8192
1763452,1634745528.328,8194
1763453,1634745528.33,8196
1763454,1634745528.332,8197
1763455,1634745528.334,8199
1763456,1634745528.336,8200
1763457,1634745528.338,8202
1763458,1634745528.34,8204
1763459,1634745528.342,8205
1763460,1634745528.344,8206
1763461,1634745528.346,8208
1763462,1634745528.348,8209
1763463,1634745528.35,8209
1763464,1634745528.352,8210
1763465,1634745528.354,8211
1763466,1634745528.356,8212
1763467,1634745528.358,8213
1763468,1634745528.36,8213
1763469,1634745528.362,8214
1763470,1634745528.364,8214
1763471,1634745528.366,8216
1763472,1634745528.368,8217
1763473,1634745528.37,8218
1763474,1634745528.372,8220
1763475,1634745528.374,8221
1763476,1634745528.376,8223
1763477,1634745528.378,8224
1763478,1634745528.38,8226
1763479,1634745528.382,8228
1763480,1634745528.384,8229
1763481,1634745528.386,8230
1763482,1634745528.388,8230
1763483,1634745528.39,8230
1763484,1634745528.392,8228
1763485,1634745528.394,8226
1763486,1634745528.396,8224
1763487,1634745528.398,8221
1763488,1634745528.4,8218
1763489,1634745528.402,8214
1763490,1634745528.404,8211
1763491,1634745528.406,8207
1763492,1634745528.408,8204
1763493,1634745528.41,8202
1763494,1634745528.412,8200
1763495,1634745528.414,8198
1763496,1634745528.416,8197
1763497,1634745528.418,8195
1763498,1634745528.42,8194
1763499,1634745528.422,8193
1763500,1634745528.424,8192
1763501,1634745528.426,8192
1763502,1634745528.428,8191
1763503,1634745528.43,8190
1763504,1634745528.432,8190
1763505,1634745528.434,8189
1763506,1634745528.436,8189
1763507,1634745528.438,8189
1763508,1634745528.44,8188
1763509,1634745528.442,8188
1763510,1634745528.444,8188
1763511,1634745528.446,8188
1763512,1634745528.448,8187
1763513,1634745528.45,8187
1763514,1634745528.452,8186
1763515,1634745528.454,8186
1763516,1634745528.456,8186
1763517,1634745528.458,8186
1763518,1634745528.46,8186
1763519,1634745528.462,8185
1763520,1634745528.464,8185
1763521,1634745528.466,8185
1763522,1634745528.468,8185
1763523,1634745528.47,8185
1763524,1634745528.472,8185
1763525,1634745528.474,8186
1763526,1634745528.476,8186
1763527,1634745528.478,8186
1763528,1634745528.48,8186
1763529,1634745528.482,8185
1763530,1634745528.484,8185
1763531,1634745528.486,8186
1763532,1634745528.488,8186
1763533,1634745528.49,8186
1763534,1634745528.492,8186
1763535,1634745528.494,8187
1763536,1634745528.496,8188
1763537,1634745528.498,8188
1763538,1634745528.5,8189
1763539,1634745528.502,8189
1763540,1634745528.504,8190
1763541,1634745528.506,8190
1763542,1634745528.508,8191
1763543,1634745528.51,8192
1763544,1634745528.512,8193
1763545,1634745528.514,8194
1763546,1634745528.516,8196
1763547,1634745528.518,8198
1763548,1634745528.52,8201
1763549,1634745528.522,8205
1763550,1634745528.524,8210
1763551,1634745528.526,8215
1763552,1634745528.528,8218
1763553,1634745528.53,8219
1763554,1634745528.532,8219
1763555,1634745528.534,8217
1763556,1634745528.536,8215
1763557,1634745528.538,8212
1763558,1634745528.54,8210
1763559,1634745528.542,8206
1763560,1634745528.544,8201
1763561,1634745528.546,8196
1763562,1634745528.548,8191
1763563,1634745528.55,8187
1763564,1634745528.552,8183
1763565,1634745528.554,8180
1763566,1634745528.556,8178
1763567,1634745528.558,8176
1763568,1634745528.56,8175
1763569,1634745528.562,8175
1763570,1634745528.564,8175
1763571,1634745528.566,8175
1763572,1634745528.568,8175
1763573,1634745528.57,8175
1763574,1634745528.572,8175
1763575,1634745528.574,8176
1763576,1634745528.576,8176
1763577,1634745528.578,8176
1763578,1634745528.58,8176
1763579,1634745528.582,8175
1763580,1634745528.584,8175
1763581,1634745528.586,8175
1763582,1634745528.588,8175
1763583,1634745528.59,8175
1763584,1634745528.592,8175
1763585,1634745528.594,8174
1763586,1634745528.596,8170
1763587,1634745528.598,8158
1763588,1634745528.6,8135
1763589,1634745528.602,8108
1763590,1634745528.604,8085
1763591,1634745528.606,8070
1763592,1634745528.608,8064
1763593,1634745528.61,8063
1763594,1634745528.612,8066
1763595,1634745528.614,8079
1763596,1634745528.616,8113
1763597,1634745528.618,8178
1763598,1634745528.62,8267
1763599,1634745528.622,8350
1763600,1634745528.624,8404
1763601,1634745528.626,8426
1763602,1634745528.628,8421
1763603,1634745528.63,8392
1763604,1634745528.632,8339
1763605,1634745528.634,8272
1763606,1634745528.636,8210
1763607,1634745528.638,8168
1763608,1634745528.64,8148
1763609,1634745528.642,8147
1763610,1634745528.644,8155
1763611,1634745528.646,8165
1763612,1634745528.648,8170
1763613,1634745528.65,8172
1763614,1634745528.652,8170
1763615,1634745528.654,8168
1763616,1634745528.656,8165
1763617,1634745528.658,8162
1763618,1634745528.66,8160
1763619,1634745528.662,8159
1763620,1634745528.664,8159
1763621,1634745528.666,8158
1763622,1634745528.668,8158
1763623,1634745528.67,8158
1763624,1634745528.672,8158
1763625,1634745528.674,8158
1763626,1634745528.676,8159
1763627,1634745528.678,8159
1763628,1634745528.68,8159
1763629,1634745528.682,8159
1763630,1634745528.684,8160
1763631,1634745528.686,8160
1763632,1634745528.688,8161
1763633,1634745528.69,8161
1763634,1634745528.692,8161
1763635,1634745528.694,8162
1763636,1634745528.696,8163
1763637,1634745528.698,8163
1763638,1634745528.7,8164
1763639,1634745528.702,8164
1763640,1634745528.704,8164
1763641,1634745528.706,8165
1763642,1634745528.708,8165
1763643,1634745528.71,8165
1763644,1634745528.712,8165
1763645,1634745528.714,8166
1763646,1634745528.716,8167
1763647,1634745528.718,8168
1763648,1634745528.72,8169
1763649,1634745528.722,8169
1763650,1634745528.724,8170
1763651,1634745528.726,8171
1763652,1634745528.728,8171
1763653,1634745528.73,8172
1763654,1634745528.732,8173
1763655,1634745528.734,8175
1763656,1634745528.736,8176
1763657,1634745528.738,8177
1763658,1634745528.74,8178
1763659,1634745528.742,8179
1763660,1634745528.744,8180
1763661,1634745528.746,8181
1763662,1634745528.748,8182
1763663,1634745528.75,8183
1763664,1634745528.752,8185
1763665,1634745528.754,8186
1763666,1634745528.756,8188
1763667,1634745528.758,8191
1763668,1634745528.76,8193
1763669,1634745528.762,8195
1763670,1634745528.764,8196
1763671,1634745528.766,8198
1763672,1634745528.768,8199
1763673,1634745528.77,8200
1763674,1634745528.772,8201
1763675,1634745528.774,8203
1763676,1634745528.776,8204
1763677,1634745528.778,8206
1763678,1634745528.78,8207
1763679,1634745528.782,8208
1763680,1634745528.784,8209
1763681,1634745528.786,8209
1763682,1634745528.788,8210
1763683,1634745528.79,8211
1763684,1634745528.792,8211
1763685,1634745528.794,8212
1763686,1634745528.796,8214
1763687,1634745528.798,8215
1763688,1634745528.8,8217
1763689,1634745528.802,8220
1763690,1634745528.804,8222
1763691,1634745528.806,8224
1763692,1634745528.808,8226
1763693,1634745528.81,8228
1763694,1634745528.812,8229
1763695,1634745528.814,8229
1763696,1634745528.816,8230
1763697,1634745528.818,8229
1763698,1634745528.82,8228
1763699,1634745528.822,8226
1763700,1634745528.824,8223
1763701,1634745528.826,8220
1763702,1634745528.828,8217
1763703,1634745528.83,8214
1763704,1634745528.832,8210
1763705,1634745528.834,8207
1763706,1634745528.836,8204
1763707,1634745528.838,8202
1763708,1634745528.84,8200
1763709,1634745528.842,8197
1763710,1634745528.844,8195
1763711,1634745528.846,8194
1763712,1634745528.848,8192
1763713,1634745528.85,8191
1763714,1634745528.852,8190
1763715,1634745528.854,8189
1763716,1634745528.856,8188
1763717,1634745528.858,8188
1763718,1634745528.86,8188
1763719,1634745528.862,8187
1763720,1634745528.864,8187
1763721,1634745528.866,8187
1763722,1634745528.868,8187
1763723,1634745528.87,8186
1763724,1634745528.872,8186
1763725,1634745528.874,8186
1763726,1634745528.876,8186
1763727,1634745528.878,8186
1763728,1634745528.88,8186
1763729,1634745528.882,8187
1763730,1634745528.884,8187
1763731,1634745528.886,8187
1763732,1634745528.888,8187
1763733,1634745528.89,8187
1763734,1634745528.892,8187
1763735,1634745528.894,8187
1763736,1634745528.896,8187
1763737,1634745528.898,8187
1763738,1634745528.9,8187
1763739,1634745528.902,8187
1763740,1634745528.904,8187
1763741,1634745528.906,8187
1763742,1634745528.908,8187
1763743,1634745528.91,8187
1763744,1634745528.912,8187
1763745,1634745528.914,8187
1763746,1634745528.916,8187
1763747,1634745528.918,8188
1763748,1634745528.92,8188
1763749,1634745528.922,8189
1763750,1634745528.924,8190
1763751,1634745528.926,8191
1763752,1634745528.928,8192
1763753,1634745528.93,8192
1763754,1634745528.932,8192
1763755,1634745528.934,8193
1763756,1634745528.936,8194
1763757,1634745528.938,8195
1763758,1634745528.94,8196
1763759,1634745528.942,8197
1763760,1634745528.944,8199
1763761,1634745528.946,8201
1763762,1634745528.948,8203
1763763,1634745528.95,8206
1763764,1634745528.952,8210
1763765,1634745528.954,8215
1763766,1634745528.956,8218
1763767,1634745528.958,8220
1763768,1634745528.96,8219
1763769,1634745528.962,8218
1763770,1634745528.964,8217
1763771,1634745528.966,8215
1763772,1634745528.968,8213
1763773,1634745528.97,8210
1763774,1634745528.972,8205
1763775,1634745528.974,8199
1763776,1634745528.976,8194
1763777,1634745528.978,8189
1763778,1634745528.98,8185
1763779,1634745528.982,8182
1763780,1634745528.984,8180
1763781,1634745528.986,8179
1763782,1634745528.988,8178
1763783,1634745528.99,8177
1763784,1634745528.992,8177
1763785,1634745528.994,8177
1763786,1634745528.996,8177
1763787,1634745528.998,8177
1763788,1634745529.0,8176
1763789,1634745529.002,8176
1763790,1634745529.004,8176
1763791,1634745529.006,8176
1763792,1634745529.008,8176
1763793,1634745529.01,8176
1763794,1634745529.012,8176
1763795,1634745529.014,8176
1763796,1634745529.016,8176
1763797,1634745529.018,8176
1763798,1634745529.02,8177
1763799,1634745529.022,8176
1763800,1634745529.024,8170
1763801,1634745529.026,8157
1763802,1634745529.028,8135
1763803,1634745529.03,8110
1763804,1634745529.032,8088
1763805,1634745529.034,8073
1763806,1634745529.036,8066
1763807,1634745529.038,8065
1763808,1634745529.04,8070
1763809,1634745529.042,8085
1763810,1634745529.044,8124
1763811,1634745529.046,8191
1763812,1634745529.048,8273
1763813,1634745529.05,8344
1763814,1634745529.052,8389
1763815,1634745529.054,8407
1763816,1634745529.056,8403
1763817,1634745529.058,8376
1763818,1634745529.06,8327
1763819,1634745529.062,8263
1763820,1634745529.064,8205
1763821,1634745529.066,8165
1763822,1634745529.068,8148
1763823,1634745529.07,8148
1763824,1634745529.072,8157
1763825,1634745529.074,8166
1763826,1634745529.076,8173
1763827,1634745529.078,8176
1763828,1634745529.08,8175
1763829,1634745529.082,8172
1763830,1634745529.084,8169
1763831,1634745529.086,8166
1763832,1634745529.088,8164
1763833,1634745529.09,8163
1763834,1634745529.092,8162
1763835,1634745529.094,8162
1763836,1634745529.096,8162
1763837,1634745529.098,8162
1763838,1634745529.1,8162
1763839,1634745529.102,8163
1763840,1634745529.104,8163
1763841,1634745529.106,8164
1763842,1634745529.108,8164
1763843,1634745529.11,8164
1763844,1634745529.112,8164
1763845,1634745529.114,8165
1763846,1634745529.116,8165
1763847,1634745529.118,8166
1763848,1634745529.12,8166
1763849,1634745529.122,8166
1763850,1634745529.124,8167
1763851,1634745529.126,8167
1763852,1634745529.128,8168
1763853,1634745529.13,8169
1763854,1634745529.132,8169
1763855,1634745529.134,8170
1763856,1634745529.136,8170
1763857,1634745529.138,8171
1763858,1634745529.14,8171
1763859,1634745529.142,8172
1763860,1634745529.144,8173
1763861,1634745529.146,8173
1763862,1634745529.148,8174
1763863,1634745529.15,8174
1763864,1634745529.152,8175
1763865,1634745529.154,8176
1763866,1634745529.156,8177
1763867,1634745529.158,8178
1763868,1634745529.16,8179
1763869,1634745529.162,8180
1763870,1634745529.164,8181
1763871,1634745529.166,8182
1763872,1634745529.168,8183
1763873,1634745529.17,8185
1763874,1634745529.172,8187
1763875,1634745529.174,8188
1763876,1634745529.176,8189
1763877,1634745529.178,8191
1763878,1634745529.18,8193
1763879,1634745529.182,8194
1763880,1634745529.184,8196
1763881,1634745529.186,8198
1763882,1634745529.188,8200
1763883,1634745529.19,8202
1763884,1634745529.192,8204
1763885,1634745529.194,8205
1763886,1634745529.196,8207
1763887,1634745529.198,8208
1763888,1634745529.2,8209
1763889,1634745529.202,8209
1763890,1634745529.204,8210
1763891,1634745529.206,8211
1763892,1634745529.208,8212
1763893,1634745529.21,8212
1763894,1634745529.212,8213
1763895,1634745529.214,8214
1763896,1634745529.216,8215
1763897,1634745529.218,8216
1763898,1634745529.22,8217
1763899,1634745529.222,8219
1763900,1634745529.224,8220
1763901,1634745529.226,8222
1763902,1634745529.228,8224
1763903,1634745529.23,8226
1763904,1634745529.232,8229
1763905,1634745529.234,8231
1763906,1634745529.236,8234
1763907,1634745529.238,8236
1763908,1634745529.24,8238
1763909,1634745529.242,8239
1763910,1634745529.244,8239
1763911,1634745529.246,8239
1763912,1634745529.248,8237
1763913,1634745529.25,8235
1763914,1634745529.252,8232
1763915,1634745529.254,8229
1763916,1634745529.256,8225
1763917,1634745529.258,8221
1763918,1634745529.26,8217
1763919,1634745529.262,8213
1763920,1634745529.264,8210
1763921,1634745529.266,8207
1763922,1634745529.268,8205
1763923,1634745529.27,8204
1763924,1634745529.272,8202
1763925,1634745529.274,8201
1763926,1634745529.276,8200
1763927,1634745529.278,8199
1763928,1634745529.28,8198
1763929,1634745529.282,8197
1763930,1634745529.284,8196
1763931,1634745529.286,8195
1763932,1634745529.288,8194
1763933,1634745529.29,8194
1763934,1634745529.292,8194
1763935,1634745529.294,8194
1763936,1634745529.296,8194
1763937,1634745529.298,8194
1763938,1634745529.3,8194
1763939,1634745529.302,8194
1763940,1634745529.304,8194
1763941,1634745529.306,8194
1763942,1634745529.308,8194
1763943,1634745529.31,8194
1763944,1634745529.312,8193
1763945,1634745529.314,8193
1763946,1634745529.316,8193
1763947,1634745529.318,8193
1763948,1634745529.32,8193
1763949,1634745529.322,8194
1763950,1634745529.324,8194
1763951,1634745529.326,8194
1763952,1634745529.328,8193
1763953,1634745529.33,8193
1763954,1634745529.332,8193
1763955,1634745529.334,8193
1763956,1634745529.336,8193
1763957,1634745529.338,8192
1763958,1634745529.34,8193
1763959,1634745529.342,8193
1763960,1634745529.344,8193
1763961,1634745529.346,8194
1763962,1634745529.348,8194
1763963,1634745529.35,8195
1763964,1634745529.352,8196
1763965,1634745529.354,8197
1763966,1634745529.356,8197
1763967,1634745529.358,8197
1763968,1634745529.36,8197
1763969,1634745529.362,8198
1763970,1634745529.364,8199
1763971,1634745529.366,8201
1763972,1634745529.368,8202
1763973,1634745529.37,8203
1763974,1634745529.372,8204
1763975,1634745529.374,8206
1763976,1634745529.376,8208
1763977,1634745529.378,8211
1763978,1634745529.38,8215
1763979,1634745529.382,8219
1763980,1634745529.384,8221
1763981,1634745529.386,8221
1763982,1634745529.388,8221
1763983,1634745529.39,8219
1763984,1634745529.392,8218
1763985,1634745529.394,8217
1763986,1634745529.396,8215
1763987,1634745529.398,8211
1763988,1634745529.4,8206
1763989,1634745529.402,8201
1763990,1634745529.404,8196
1763991,1634745529.406,8192
1763992,1634745529.408,8189
1763993,1634745529.41,8186
1763994,1634745529.412,8183
1763995,1634745529.414,8182
1763996,1634745529.416,8181
1763997,1634745529.418,8181
1763998,1634745529.42,8181
1763999,1634745529.422,8181
1764000,1634745529.424,8182
1764001,1634745529.426,8181
1764002,1634745529.428,8181
1764003,1634745529.43,8180
1764004,1634745529.432,8180
1764005,1634745529.434,8180
1764006,1634745529.436,8180
1764007,1634745529.438,8180
1764008,1634745529.44,8180
1764009,1634745529.442,8180
1764010,1634745529.444,8179
1764011,1634745529.446,8179
1764012,1634745529.448,8179
1764013,1634745529.45,8177
1764014,1634745529.452,8170
1764015,1634745529.454,8155
1764016,1634745529.456,8130
1764017,1634745529.458,8103
1764018,1634745529.46,8082
1764019,1634745529.462,8069
1764020,1634745529.464,8063
1764021,1634745529.466,8062
1764022,1634745529.468,8067
1764023,1634745529.47,8083
1764024,1634745529.472,8122
1764025,1634745529.474,8189
1764026,1634745529.476,8270
1764027,1634745529.478,8337
1764028,1634745529.48,8377
1764029,1634745529.482,8395
1764030,1634745529.484,8394
1764031,1634745529.486,8372
1764032,1634745529.488,8325
1764033,1634745529.49,8265
1764034,1634745529.492,8208
1764035,1634745529.494,8170
1764036,1634745529.496,8152
1764037,1634745529.498,8151
1764038,1634745529.5,8158
1764039,1634745529.502,8168
1764040,1634745529.504,8175
1764041,1634745529.506,8177
1764042,1634745529.508,8177
1764043,1634745529.51,8174
1764044,1634745529.512,8171
1764045,1634745529.514,8168
1764046,1634745529.516,8166
1764047,1634745529.518,8165
1764048,1634745529.52,8164
1764049,1634745529.522,8164
1764050,1634745529.524,8164
1764051,1634745529.526,8164
1764052,1634745529.528,8165
1764053,1634745529.53,8165
1764054,1634745529.532,8164
1764055,1634745529.534,8165
1764056,1634745529.536,8165
1764057,1634745529.538,8165
1764058,1634745529.54,8165
1764059,1634745529.542,8165
1764060,1634745529.544,8166
1764061,1634745529.546,8166
1764062,1634745529.548,8166
1764063,1634745529.55,8167
1764064,1634745529.552,8167
1764065,1634745529.554,8168
1764066,1634745529.556,8169
1764067,1634745529.558,8169
1764068,1634745529.56,8170
1764069,1634745529.562,8171
1764070,1634745529.564,8171
1764071,1634745529.566,8172
1764072,1634745529.568,8173
1764073,1634745529.57,8173
1764074,1634745529.572,8174
1764075,1634745529.574,8175
1764076,1634745529.576,8176
1764077,1634745529.578,8177
1764078,1634745529.58,8177
1764079,1634745529.582,8178
1764080,1634745529.584,8179
1764081,1634745529.586,8180
1764082,1634745529.588,8181
1764083,1634745529.59,8182
1764084,1634745529.592,8183
1764085,1634745529.594,8183
1764086,1634745529.596,8184
1764087,1634745529.598,8185
1764088,1634745529.6,8187
1764089,1634745529.602,8188
1764090,1634745529.604,8190
1764091,1634745529.606,8191
1764092,1634745529.608,8193
1764093,1634745529.61,8195
1764094,1634745529.612,8196
1764095,1634745529.614,8198
1764096,1634745529.616,8200
1764097,1634745529.618,8202
1764098,1634745529.62,8203
1764099,1634745529.622,8205
1764100,1634745529.624,8207
1764101,1634745529.626,8208
1764102,1634745529.628,8209
1764103,1634745529.63,8210
1764104,1634745529.632,8211
1764105,1634745529.634,8212
1764106,1634745529.636,8213
1764107,1634745529.638,8213
1764108,1634745529.64,8214
1764109,1634745529.642,8215
1764110,1634745529.644,8215
1764111,1634745529.646,8216
1764112,1634745529.648,8217
1764113,1634745529.65,8219
1764114,1634745529.652,8220
1764115,1634745529.654,8222
1764116,1634745529.656,8224
1764117,1634745529.658,8225
1764118,1634745529.66,8227
1764119,1634745529.662,8229
1764120,1634745529.664,8231
1764121,1634745529.666,8233
1764122,1634745529.668,8235
1764123,1634745529.67,8235
1764124,1634745529.672,8235
1764125,1634745529.674,8234
1764126,1634745529.676,8232
1764127,1634745529.678,8229
1764128,1634745529.68,8226
1764129,1634745529.682,8223
1764130,1634745529.684,8219
1764131,1634745529.686,8215
1764132,1634745529.688,8211
1764133,1634745529.69,8207
1764134,1634745529.692,8204
1764135,1634745529.694,8201
1764136,1634745529.696,8198
1764137,1634745529.698,8196
1764138,1634745529.7,8194
1764139,1634745529.702,8192
1764140,1634745529.704,8191
1764141,1634745529.706,8190
1764142,1634745529.708,8190
1764143,1634745529.71,8189
1764144,1634745529.712,8188
1764145,1634745529.714,8188
1764146,1634745529.716,8187
1764147,1634745529.718,8187
1764148,1634745529.72,8187
1764149,1634745529.722,8187
1764150,1634745529.724,8187
1764151,1634745529.726,8186
1764152,1634745529.728,8186
1764153,1634745529.73,8186
1764154,1634745529.732,8186
1764155,1634745529.734,8186
1764156,1634745529.736,8186
1764157,1634745529.738,8186
1764158,1634745529.74,8186
1764159,1634745529.742,8187
1764160,1634745529.744,8187
1764161,1634745529.746,8187
1764162,1634745529.748,8187
1764163,1634745529.75,8187
1764164,1634745529.752,8187
1764165,1634745529.754,8188
1764166,1634745529.756,8187
1764167,1634745529.758,8187
1764168,1634745529.76,8186
1764169,1634745529.762,8186
1764170,1634745529.764,8186
1764171,1634745529.766,8186
1764172,1634745529.768,8186
1764173,1634745529.77,8187
1764174,1634745529.772,8187
1764175,1634745529.774,8188
1764176,1634745529.776,8188
1764177,1634745529.778,8189
1764178,1634745529.78,8190
1764179,1634745529.782,8191
1764180,1634745529.784,8191
1764181,1634745529.786,8191
1764182,1634745529.788,8191
1764183,1634745529.79,8192
1764184,1634745529.792,8193
1764185,1634745529.794,8194
1764186,1634745529.796,8195
1764187,1634745529.798,8196
1764188,1634745529.8,8198
1764189,1634745529.802,8200
1764190,1634745529.804,8204
1764191,1634745529.806,8208
1764192,1634745529.808,8213
1764193,1634745529.81,8217
1764194,1634745529.812,8219
1764195,1634745529.814,8219
1764196,1634745529.816,8218
1764197,1634745529.818,8217
1764198,1634745529.82,8216
1764199,1634745529.822,8213
1764200,1634745529.824,8210
1764201,1634745529.826,8206
1764202,1634745529.828,8201
1764203,1634745529.83,8195
1764204,1634745529.832,8190
1764205,1634745529.834,8186
1764206,1634745529.836,8184
1764207,1634745529.838,8182
1764208,1634745529.84,8180
1764209,1634745529.842,8180
1764210,1634745529.844,8179
1764211,1634745529.846,8179
1764212,1634745529.848,8178
1764213,1634745529.85,8178
1764214,1634745529.852,8178
1764215,1634745529.854,8177
1764216,1634745529.856,8177
1764217,1634745529.858,8177
1764218,1634745529.86,8177
1764219,1634745529.862,8177
1764220,1634745529.864,8177
1764221,1634745529.866,8177
1764222,1634745529.868,8177
1764223,1634745529.87,8177
1764224,1634745529.872,8177
1764225,1634745529.874,8177
1764226,1634745529.876,8177
1764227,1634745529.878,8174
1764228,1634745529.88,8166
1764229,1634745529.882,8148
1764230,1634745529.884,8122
1764231,1634745529.886,8096
1764232,1634745529.888,8076
1764233,1634745529.89,8065
1764234,1634745529.892,8061
1764235,1634745529.894,8062
1764236,1634745529.896,8069
1764237,1634745529.898,8091
1764238,1634745529.9,8141
1764239,1634745529.902,8220
1764240,1634745529.904,8306
1764241,1634745529.906,8372
1764242,1634745529.908,8408
1764243,1634745529.91,8418
1764244,1634745529.912,8404
1764245,1634745529.914,8365
1764246,1634745529.916,8305
1764247,1634745529.918,8241
1764248,1634745529.92,8190
1764249,1634745529.922,8162
1764250,1634745529.924,8154
1764251,1634745529.926,8159
1764252,1634745529.928,8168
1764253,1634745529.93,8176
1764254,1634745529.932,8179
1764255,1634745529.934,8179
1764256,1634745529.936,8176
1764257,1634745529.938,8173
1764258,1634745529.94,8170
1764259,1634745529.942,8168
1764260,1634745529.944,8167
1764261,1634745529.946,8166
1764262,1634745529.948,8165
1764263,1634745529.95,8165
1764264,1634745529.952,8165
1764265,1634745529.954,8165
1764266,1634745529.956,8165
1764267,1634745529.958,8165
1764268,1634745529.96,8165
1764269,1634745529.962,8165
1764270,1634745529.964,8165
1764271,1634745529.966,8165
1764272,1634745529.968,8165
1764273,1634745529.97,8166
1764274,1634745529.972,8166
1764275,1634745529.974,8167
1764276,1634745529.976,8168
1764277,1634745529.978,8169
1764278,1634745529.98,8169
1764279,1634745529.982,8169
1764280,1634745529.984,8170
1764281,1634745529.986,8171
1764282,1634745529.988,8171
1764283,1634745529.99,8172
1764284,1634745529.992,8173
1764285,1634745529.994,8173
1764286,1634745529.996,8173
1764287,1634745529.998,8174
1764288,1634745530.0,8174
1764289,1634745530.002,8175
1764290,1634745530.004,8176
1764291,1634745530.006,8177
1764292,1634745530.008,8177
1764293,1634745530.01,8178
1764294,1634745530.012,8179
1764295,1634745530.014,8179
1764296,1634745530.016,8180
1764297,1634745530.018,8181
1764298,1634745530.02,8182
1764299,1634745530.022,8183
1764300,1634745530.024,8184
1764301,1634745530.026,8186
1764302,1634745530.028,8187
1764303,1634745530.03,8188
1764304,1634745530.032,8191
1764305,1634745530.034,8193
1764306,1634745530.036,8195
1764307,1634745530.038,8197
1764308,1634745530.04,8198
1764309,1634745530.042,8199
1764310,1634745530.044,8201
1764311,1634745530.046,8203
1764312,1634745530.048,8204
1764313,1634745530.05,8206
1764314,1634745530.052,8207
1764315,1634745530.054,8208
1764316,1634745530.056,8210
1764317,1634745530.058,8211
1764318,1634745530.06,8212
